234 254 -215 137 527 566 420 312
271 297 -251 153 605 657 489 367
249 278 -234 132 547 605 454 346
241 275 -231 120 522 588 445 345
264 303 -254 127 566 644 488 381
280 323 -270 128 593 683 519 404
278 322 -268 117 576 678 517 400
280 326 -270 108 568 682 523 402
293 342 -283 107 586 712 547 420
302 353 -292 105 597 730 564 436
303 356 -293 98 590 727 566 444
306 361 -296 91 588 729 572 454
312 371 -303 88 595 742 586 468
314 380 -308 86 598 751 597 477
312 386 -312 83 595 756 605 483
312 394 -318 81 596 765 617 492
312 400 -322 78 595 771 625 498
310 401 -323 72 586 765 621 495
307 400 -322 63 571 752 610 488
306 401 -323 54 559 742 602 483
303 400 -322 49 547 732 595 478
296 392 -317 48 532 718 585 471
288 381 -312 49 517 703 576 464
280 371 -309 49 503 690 569 459
273 361 -303 49 488 673 556 449
264 350 -290 49 468 645 531 426
254 337 -273 49 444 610 498 395
245 325 -258 49 421 577 466 365
234 312 -244 49 400 547 439 342
220 294 -228 49 379 514 411 322
205 273 -210 49 356 478 381 303
190 252 -192 49 333 442 350 284
176 234 -176 49 312 410 322 264
160 215 -160 49 290 377 294 241
142 195 -142 49 268 342 264 215
124 174 -124 49 245 306 233 189
107 156 -107 49 224 273 205 166
91 139 -92 49 203 242 178 144
73 122 -78 49 181 210 151 122
54 104 -63 49 157 176 123 99
39 88 -49 49 137 146 98 78
31 75 -38 49 123 122 76 61
29 63 -29 49 112 102 54 44
27 51 -20 49 100 80 30 26
20 39 -10 49 88 59 10 10
7 27 2 47 75 41 -5 -3
-10 15 15 44 63 24 -15 -15
-28 1 29 41 50 6 -27 -28
-39 -10 39 39 39 -10 -39 -39
-42 -18 45 39 30 -21 -50 -46
-39 -24 49 39 24 -29 -59 -49
-37 -32 54 39 17 -39 -69 -53
-39 -39 59 39 10 -49 -78 -59
-43 -43 64 39 3 -59 -86 -66
-49 -44 68 39 -5 -68 -93 -73
-55 -46 74 39 -14 -79 -101 -82
-59 -49 78 39 -20 -88 -107 -88
-60 -52 79 39 -22 -92 -111 -90
-59 -54 78 39 -20 -93 -112 -88
-58 -56 77 39 -19 -95 -114 -87
-59 -59 78 39 -20 -98 -117 -88
-61 -61 80 39 -24 -100 -120 -90
-63 -63 83 39 -29 -102 -122 -93
-66 -65 86 39 -35 -104 -125 -96
-68 -68 88 39 -39 -107 -127 -98
-68 -70 90 39 -40 -108 -128 -99
-68 -73 93 39 -39 -107 -127 -98
-68 -76 96 39 -39 -106 -126 -98
-68 -78 98 39 -39 -107 -127 -98
-68 -78 98 39 -39 -109 -129 -99
-68 -78 98 39 -39 -112 -132 -102
-68 -78 98 39 -39 -115 -135 -105
-68 -78 98 39 -39 -117 -137 -107
-68 -78 98 39 -39 -117 -137 -107
-68 -78 98 39 -39 -117 -137 -107
-68 -78 98 39 -39 -117 -137 -107
-68 -78 98 39 -39 -117 -137 -107
-68 -78 98 39 -39 -117 -137 -107
-68 -78 98 39 -39 -117 -137 -107
-68 -78 98 39 -39 -117 -137 -107
-68 -78 98 39 -39 -117 -137 -107
-68 -78 98 39 -39 -115 -137 -107
-68 -78 98 39 -39 -112 -137 -107
-68 -78 98 39 -39 -109 -137 -107
-68 -78 98 39 -39 -107 -137 -107
-68 -78 98 41 -39 -107 -135 -105
-68 -78 98 44 -39 -107 -132 -102
-68 -78 98 47 -39 -107 -129 -99
-68 -78 98 49 -39 -107 -127 -98
-68 -78 98 49 -39 -107 -126 -98
-68 -78 98 49 -39 -107 -127 -98
-68 -78 98 49 -40 -107 -127 -98
-68 -78 98 49 -39 -107 -127 -98
-68 -78 98 51 -35 -105 -125 -98
-68 -78 98 54 -29 -102 -122 -98
-68 -78 98 57 -23 -99 -119 -98
-68 -78 98 59 -20 -98 -117 -98
-66 -78 98 59 -19 -98 -117 -98
-63 -78 98 59 -20 -98 -117 -98
-60 -78 98 59 -20 -98 -117 -98
-59 -78 98 59 -20 -98 -117 -98
-59 -78 98 59 -20 -96 -117 -98
-59 -78 98 59 -20 -93 -117 -98
-59 -78 98 59 -20 -90 -117 -98
-59 -78 98 59 -20 -88 -117 -98
-59 -78 99 60 -20 -88 -117 -98
-59 -78 102 63 -20 -88 -117 -98
-59 -78 105 66 -20 -88 -117 -98
-59 -78 107 68 -20 -88 -117 -98
-59 -78 107 68 -18 -88 -117 -98
-59 -78 107 68 -15 -88 -117 -98
-59 -78 107 68 -12 -88 -117 -98
-59 -78 107 68 -10 -88 -117 -98
-59 -78 107 68 -10 -88 -117 -98
-59 -78 107 68 -10 -88 -117 -98
-59 -78 107 68 -10 -88 -117 -98
-59 -78 107 68 -10 -88 -117 -98
-59 -78 107 68 -10 -88 -117 -98
-59 -78 107 68 -10 -88 -117 -98
-59 -78 107 68 -10 -88 -117 -98
-59 -78 107 68 -10 -88 -117 -98
-59 -78 109 68 -10 -88 -117 -95
-59 -78 112 68 -10 -88 -117 -88
-59 -78 115 68 -10 -88 -117 -81
-59 -78 117 68 -10 -88 -117 -78
-59 -78 117 68 -10 -88 -117 -81
-59 -78 117 68 -10 -88 -117 -88
-59 -78 117 68 -10 -88 -117 -95
-59 -78 117 68 -10 -88 -117 -98
-59 -80 117 68 -10 -88 -117 -99
-59 -83 117 68 -10 -88 -117 -98
-59 -86 117 68 -10 -88 -117 -98
-59 -88 117 68 -10 -88 -117 -98
-59 -88 117 68 -12 -90 -119 -99
-59 -88 117 68 -15 -93 -122 -102
-59 -88 117 68 -18 -96 -125 -105
-59 -88 117 68 -20 -98 -127 -107
-59 -88 117 68 -20 -98 -127 -107
-59 -88 117 68 -20 -98 -127 -107
-59 -88 117 68 -20 -98 -127 -107
-59 -88 117 68 -20 -98 -127 -107
-59 -88 119 68 -21 -98 -127 -107
-59 -88 122 68 -24 -98 -127 -107
-59 -88 125 68 -27 -98 -127 -107
-59 -88 127 68 -29 -98 -127 -107
-59 -88 127 66 -29 -98 -127 -107
-59 -88 127 63 -29 -98 -127 -107
-59 -88 127 60 -29 -98 -127 -107
-59 -88 127 59 -29 -98 -127 -107
-59 -88 127 59 -29 -98 -127 -107
-59 -88 127 59 -29 -98 -127 -107
-59 -88 127 59 -29 -98 -127 -107
-59 -88 127 59 -29 -98 -127 -107
-59 -90 127 59 -29 -99 -127 -107
-59 -93 127 59 -29 -102 -127 -107
-59 -96 127 59 -29 -105 -127 -107
-59 -98 127 59 -29 -107 -127 -107
-59 -98 127 59 -29 -107 -127 -107
-59 -98 127 59 -29 -107 -127 -107
-59 -98 127 59 -29 -107 -127 -107
-59 -98 127 59 -29 -107 -127 -107
-59 -98 127 59 -29 -107 -129 -107
-59 -98 127 59 -29 -107 -132 -107
-59 -98 127 59 -29 -107 -135 -107
-59 -98 127 59 -29 -107 -137 -107
-60 -96 127 59 -29 -107 -137 -107
-63 -93 127 59 -29 -107 -137 -107
-66 -90 127 59 -29 -107 -137 -107
-68 -88 127 59 -29 -107 -137 -107
-68 -88 127 59 -29 -107 -137 -107
-68 -88 127 59 -29 -107 -137 -107
-68 -88 127 59 -29 -107 -137 -107
-68 -88 127 59 -29 -107 -137 -107
-68 -88 127 59 -29 -107 -135 -107
-68 -88 127 59 -29 -107 -132 -107
-68 -88 127 59 -29 -107 -129 -107
-68 -88 127 59 -29 -107 -127 -107
-68 -88 127 59 -29 -107 -127 -107
-68 -88 127 59 -29 -107 -127 -107
-68 -88 127 59 -29 -107 -127 -107
-68 -88 127 59 -29 -107 -127 -107
-68 -88 127 59 -29 -107 -127 -107
-68 -88 127 59 -29 -107 -127 -107
-68 -88 127 59 -29 -107 -127 -107
-68 -88 127 59 -29 -107 -127 -107
-66 -88 127 59 -29 -105 -127 -104
-63 -88 127 59 -29 -102 -127 -98
-60 -88 127 59 -29 -99 -127 -91
-59 -88 127 59 -29 -98 -127 -88
-59 -88 127 59 -31 -98 -127 -91
-59 -88 127 59 -34 -98 -127 -98
-59 -88 127 59 -37 -98 -127 -104
-59 -88 127 59 -39 -98 -127 -107
-59 -90 127 59 -39 -98 -127 -107
-59 -93 127 59 -39 -98 -127 -107
-59 -96 127 59 -39 -98 -127 -107
-59 -98 127 59 -39 -98 -127 -107
-59 -98 127 59 -39 -98 -129 -107
-59 -98 127 59 -39 -98 -132 -107
-59 -98 127 59 -39 -98 -135 -107
-59 -98 127 59 -39 -98 -137 -107
-60 -98 127 59 -39 -98 -137 -107
-63 -98 127 59 -39 -98 -137 -107
-66 -98 127 59 -39 -98 -137 -107
-68 -98 127 59 -39 -98 -137 -107
-68 -96 127 57 -41 -98 -137 -107
-68 -93 127 54 -44 -98 -137 -107
-68 -90 127 51 -47 -98 -137 -107
-68 -88 127 49 -49 -98 -137 -107
-68 -88 127 49 -49 -98 -137 -107
-68 -88 127 49 -49 -98 -137 -107
-68 -88 127 49 -49 -98 -137 -107
-68 -88 127 49 -49 -98 -137 -107
-68 -88 127 49 -49 -98 -137 -107
-68 -88 127 49 -49 -98 -137 -107
-68 -88 127 49 -49 -98 -137 -107
-68 -88 127 49 -49 -98 -137 -107
-68 -88 127 49 -49 -98 -137 -107
-68 -88 127 49 -49 -98 -137 -107
-68 -88 127 49 -49 -98 -137 -107
-68 -88 127 49 -49 -98 -137 -107
-65 -88 127 49 -49 -98 -137 -107
-59 -88 127 49 -49 -98 -137 -107
-52 -88 127 49 -49 -98 -137 -107
-49 -88 127 49 -49 -98 -137 -107
-52 -88 127 49 -51 -98 -139 -107
-59 -88 127 49 -54 -98 -142 -107
-65 -88 127 49 -57 -98 -145 -107
-68 -88 127 49 -59 -98 -146 -107
-68 -88 127 49 -59 -98 -146 -107
-68 -88 127 49 -59 -98 -146 -107
-68 -88 127 49 -59 -98 -146 -107
-68 -88 127 49 -59 -98 -146 -107
-68 -88 127 49 -59 -98 -146 -109
-68 -88 127 49 -59 -98 -146 -112
-68 -88 127 49 -59 -98 -146 -115
-68 -88 127 49 -59 -98 -146 -117
-68 -88 127 47 -59 -98 -146 -117
-68 -88 127 44 -59 -98 -146 -117
-68 -88 127 41 -59 -98 -146 -117
-68 -88 127 39 -59 -98 -146 -117
-68 -88 127 39 -59 -98 -148 -117
-68 -88 127 39 -59 -98 -151 -117
-68 -88 127 39 -59 -98 -154 -117
-68 -88 127 39 -59 -98 -156 -117
-68 -88 127 39 -59 -98 -156 -117
-68 -88 127 39 -59 -98 -156 -117
-68 -88 127 39 -59 -98 -156 -117
-68 -88 127 39 -59 -98 -156 -117
-68 -88 127 39 -59 -98 -156 -117
-68 -88 127 39 -59 -98 -156 -117
-68 -88 127 39 -59 -98 -156 -117
-68 -88 127 39 -59 -98 -156 -117
-68 -88 127 39 -59 -98 -158 -117
-68 -88 127 39 -59 -98 -161 -117
-68 -88 127 39 -59 -98 -164 -117
-68 -88 127 39 -59 -98 -166 -117
-68 -88 127 39 -59 -98 -166 -117
-68 -88 127 39 -59 -98 -166 -117
-68 -88 127 39 -59 -98 -166 -117
-68 -88 127 39 -59 -98 -166 -117
-68 -88 127 37 -60 -98 -166 -117
-68 -88 127 34 -63 -98 -166 -117
-68 -88 127 31 -66 -98 -166 -117
-68 -88 127 29 -68 -98 -166 -117
-68 -88 127 29 -68 -98 -166 -117
-68 -88 127 29 -68 -98 -166 -117
-68 -88 127 29 -68 -98 -166 -117
-68 -88 127 29 -68 -98 -166 -117
-68 -88 127 29 -68 -98 -168 -119
-68 -88 127 29 -68 -98 -171 -122
-68 -88 127 29 -68 -98 -174 -125
-68 -88 127 29 -68 -98 -176 -127
-68 -88 127 29 -68 -98 -176 -127
-68 -88 127 29 -68 -98 -176 -127
-68 -88 127 29 -68 -98 -176 -127
-68 -88 127 29 -68 -98 -176 -127
-68 -88 127 29 -68 -98 -176 -127
-68 -88 127 29 -68 -98 -176 -127
-68 -88 127 29 -68 -98 -176 -127
-68 -88 127 29 -68 -98 -176 -127
-68 -88 127 29 -68 -98 -176 -127
-68 -88 127 29 -68 -98 -176 -127
-68 -88 127 29 -68 -98 -176 -127
-68 -88 127 29 -68 -98 -176 -127
-68 -88 129 29 -68 -98 -176 -127
-68 -88 132 29 -68 -98 -176 -127
-68 -88 135 29 -68 -98 -176 -127
-68 -88 137 29 -68 -98 -176 -127
-68 -88 137 29 -68 -99 -176 -129
-68 -88 137 29 -68 -102 -176 -132
-68 -88 137 29 -68 -105 -176 -135
-68 -88 137 29 -68 -107 -176 -137
-68 -88 137 29 -66 -107 -176 -137
-68 -88 137 29 -63 -107 -176 -137
-68 -88 137 29 -60 -107 -176 -137
-68 -88 137 29 -59 -107 -176 -137
-68 -86 137 29 -59 -107 -176 -137
-68 -83 137 29 -59 -107 -176 -137
-68 -80 136 29 -59 -107 -176 -137
-68 -78 137 29 -59 -107 -176 -137
-68 -76 139 29 -59 -107 -176 -135
-68 -73 142 29 -59 -107 -176 -132
-68 -70 144 28 -59 -107 -176 -129
-68 -68 146 29 -59 -107 -176 -127
-66 -65 148 33 -57 -107 -176 -127
-63 -63 151 39 -54 -107 -176 -127
-60 -61 154 45 -51 -107 -176 -127
-59 -59 156 49 -49 -107 -176 -127
-59 -57 158 50 -45 -105 -176 -127
-59 -54 161 49 -39 -102 -176 -127
-59 -51 164 49 -33 -99 -176 -128
-59 -49 166 49 -29 -98 -176 -127
-59 -47 167 49 -28 -98 -174 -122
-59 -44 166 49 -29 -98 -171 -112
-59 -41 165 49 -29 -98 -168 -102
-59 -39 166 49 -29 -98 -166 -98
-59 -39 167 49 -29 -98 -166 -102
-59 -39 166 49 -29 -98 -166 -112
-60 -38 165 49 -29 -97 -165 -122
-59 -39 166 49 -29 -98 -166 -127
-55 -40 166 50 -28 -99 -167 -124
-49 -39 161 49 -24 -98 -166 -117
-43 -34 151 47 -19 -94 -160 -108
-39 -29 142 44 -15 -88 -151 -102
-34 -25 136 42 -12 -84 -144 -97
-29 -20 127 39 -10 -83 -142 -93
-24 -12 113 36 -7 -83 -142 -89
-20 -5 102 34 -5 -83 -142 -88
-19 -3 97 32 -6 -83 -139 -88
-20 -5 93 29 -10 -83 -137 -88
-21 -5 85 24 -13 -83 -136 -85
-20 0 78 20 -15 -83 -137 -83
-18 2 78 19 -17 -85 -139 -82
-15 -5 83 20 -20 -88 -142 -83
-14 -19 86 18 -23 -93 -145 -84
-15 -29 88 15 -24 -98 -146 -88
-16 -30 92 14 -25 -102 -145 -94
-15 -29 98 15 -29 -102 -146 -98
-13 -35 100 16 -37 -100 -150 -99
-15 -44 98 15 -44 -102 -156 -98
-22 -48 96 13 -46 -109 -160 -99
-29 -44 102 15 -44 -117 -161 -102
-31 -41 113 20 -43 -122 -161 -105
-29 -44 122 24 -44 -122 -161 -107
-28 -52 125 24 -46 -124 -162 -110
-34 -59 127 24 -49 -132 -166 -112
-45 -64 131 27 -54 -143 -174 -115
-54 -68 137 34 -59 -151 -181 -122
-59 -75 141 37 -60 -153 -186 -133
-63 -83 142 34 -59 -156 -190 -142
-68 -90 142 27 -58 -162 -195 -145
-73 -93 142 24 -59 -166 -200 -142
-74 -95 140 24 -61 -165 -202 -140
-73 -98 137 20 -68 -166 -205 -142
-74 -103 134 10 -78 -173 -210 -147
-78 -107 132 0 -88 -181 -215 -151
-82 -108 132 -3 -93 -183 -216 -152
-83 -107 132 -0 -93 -181 -215 -151
-83 -106 132 4 -93 -180 -214 -149
-83 -107 132 5 -93 -181 -215 -146
-83 -110 132 5 -93 -183 -215 -144
-83 -112 132 5 -93 -185 -215 -146
-82 -112 132 5 -93 -188 -215 -152
-83 -112 132 5 -93 -190 -215 -156
-86 -112 132 5 -92 -190 -215 -155
-88 -112 132 5 -93 -190 -215 -151
-89 -112 132 5 -95 -192 -214 -148
-88 -112 132 5 -98 -195 -215 -146
-88 -112 132 5 -99 -196 -217 -145
-88 -112 132 5 -98 -195 -220 -146
-88 -112 132 5 -98 -194 -223 -148
-88 -112 132 5 -98 -195 -224 -151
-88 -112 132 5 -98 -195 -224 -152
-88 -112 132 5 -98 -195 -224 -151
-88 -112 132 5 -98 -196 -224 -151
-88 -112 132 5 -98 -200 -224 -151
-88 -112 132 5 -98 -205 -223 -151
-88 -112 132 5 -98 -210 -224 -151
-88 -112 132 5 -98 -213 -226 -152
-88 -112 132 5 -98 -215 -229 -156
-90 -112 132 5 -98 -217 -230 -161
-93 -112 132 5 -98 -220 -229 -166
-96 -111 132 5 -97 -222 -228 -170
-98 -112 132 5 -98 -224 -229 -171
-99 -115 132 5 -99 -225 -230 -166
-98 -117 132 5 -98 -224 -229 -156
-97 -117 132 5 -95 -222 -226 -146
-98 -117 132 5 -93 -220 -224 -142
-99 -117 132 5 -94 -219 -225 -148
-98 -117 132 5 -93 -220 -229 -161
-94 -115 132 6 -89 -221 -233 -172
-93 -112 132 10 -83 -220 -234 -176
-95 -108 132 16 -78 -216 -230 -172
-93 -102 132 20 -73 -210 -224 -161
-86 -97 131 20 -66 -205 -219 -148
-78 -93 127 20 -59 -200 -215 -137
-75 -92 120 20 -56 -196 -211 -132
-73 -88 112 20 -54 -190 -205 -132
-68 -81 106 20 -49 -186 -200 -133
-59 -73 98 20 -39 -181 -195 -127
-53 -68 89 24 -27 -177 -191 -118
-49 -63 78 29 -15 -166 -181 -107
-40 -56 66 35 -4 -152 -168 -99
-20 -44 49 44 5 -132 -151 -88
6 -38 32 67 18 -112 -137 -77
34 -39 20 102 39 -88 -122 -68
59 -43 14 142 74 -60 -103 -62
83 -34 5 171 122 -24 -78 -49
103 -11 -8 195 191 19 -50 -25
117 20 -20 220 283 68 -20 5
129 59 -33 244 385 129 20 36
151 117 -68 249 468 210 83 78
196 195 -131 239 541 325 176 147
264 278 -205 234 634 478 298 249
342 351 -270 242 762 675 448 373
415 420 -332 224 878 903 620 503
473 499 -409 135 930 1131 803 633
512 586 -498 -34 898 1323 977 761
535 671 -581 -252 814 1485 1135 889
547 752 -649 -488 698 1646 1289 1016
555 838 -714 -726 552 1804 1439 1139
556 927 -781 -956 356 1904 1558 1250
544 1008 -837 -1165 104 1896 1613 1329
508 1055 -859 -1333 -195 1782 1592 1353
452 1044 -842 -1440 -510 1587 1492 1304
386 966 -800 -1475 -800 1319 1314 1187
323 835 -751 -1438 -1036 991 1079 1024
264 683 -698 -1353 -1216 649 830 849
208 543 -641 -1252 -1354 336 602 683
156 425 -581 -1158 -1450 59 395 532
115 330 -528 -1066 -1480 -178 210 402
88 254 -483 -966 -1426 -351 63 293
72 195 -444 -862 -1316 -448 -38 200
59 146 -405 -771 -1211 -498 -117 112
46 105 -368 -708 -1139 -535 -190 32
34 78 -332 -659 -1070 -551 -239 -20
18 71 -293 -603 -966 -527 -245 -34
-5 78 -249 -532 -830 -473 -224 -29
-34 82 -202 -463 -704 -424 -215 -32
-59 73 -156 -405 -605 -390 -224 -49
-72 50 -115 -354 -528 -367 -234 -71
-73 20 -78 -298 -454 -342 -229 -88
-73 -10 -39 -232 -380 -319 -220 -101
-73 -34 5 -166 -307 -288 -210 -107
-71 -51 49 -105 -236 -252 -200 -107
-63 -59 83 -54 -171 -215 -181 -98
-54 -63 101 -10 -119 -192 -161 -89
-49 -63 107 20 -83 -176 -146 -83
-49 -63 109 36 -60 -163 -142 -82
-49 -63 112 39 -44 -151 -142 -83
-46 -63 116 41 -30 -146 -143 -84
-44 -63 117 44 -20 -146 -142 -83
-44 -63 117 47 -11 -147 -143 -82
-44 -63 117 49 -5 -146 -146 -83
-43 -63 117 53 5 -144 -147 -86
-44 -63 117 59 15 -142 -146 -88
-50 -63 117 66 24 -140 -144 -89
-54 -63 117 68 29 -137 -142 -88
-51 -61 117 68 34 -134 -141 -86
-44 -59 117 68 39 -132 -142 -83
-42 -58 119 73 45 -130 -143 -81
-44 -59 122 78 49 -127 -142 -83
-45 -61 125 80 53 -124 -139 -89
-44 -63 127 78 59 -122 -137 -93
-43 -63 127 76 69 -120 -135 -90
-44 -63 127 78 78 -117 -132 -83
-45 -63 127 83 82 -112 -126 -78
-44 -63 127 88 83 -107 -122 -78
-41 -61 127 89 84 -104 -121 -81
-39 -59 127 88 88 -102 -122 -83
-39 -58 127 87 91 -100 -122 -85
-39 -59 127 88 93 -98 -122 -88
-37 -60 126 91 95 -95 -121 -90
-34 -59 127 93 98 -93 -117 -88
-34 -56 128 93 103 -91 -111 -83
-34 -54 127 93 107 -88 -107 -78
-32 -54 122 93 109 -83 -107 -77
-29 -54 117 93 112 -78 -107 -78
-26 -52 115 93 116 -73 -104 -79
-24 -49 117 93 122 -68 -98 -78
-23 -48 118 93 127 -65 -94 -75
-24 -49 117 93 132 -63 -93 -73
-25 -48 114 92 135 -62 -93 -71
-24 -44 112 93 137 -59 -93 -68
-22 -39 112 95 138 -52 -92 -61
-20 -34 112 98 142 -44 -88 -49
-20 -31 111 99 147 -37 -83 -38
-20 -29 112 98 151 -34 -78 -34
-16 -29 113 97 153 -34 -75 -38
-10 -29 112 98 156 -34 -73 -44
-8 -27 107 100 161 -31 -70 -47
-10 -24 102 102 166 -24 -68 -49
-13 -21 101 104 168 -16 -66 -51
-10 -20 102 107 171 -10 -63 -49
-2 -21 102 110 176 -8 -56 -42
5 -20 102 112 181 -5 -49 -34
7 -16 102 112 183 2 -45 -32
5 -10 102 112 185 10 -44 -34
3 -7 100 112 191 16 -42 -35
5 -5 98 112 200 20 -39 -34
9 -3 96 111 205 24 -34 -31
15 -0 93 112 205 29 -29 -24
21 3 87 114 205 36 -24 -15
24 5 83 117 210 44 -20 -10
24 7 81 118 219 52 -18 -10
24 10 78 117 229 59 -15 -10
24 13 73 117 235 65 -10 -6
24 15 68 117 239 73 -5 -0
26 17 66 117 242 83 1 3
34 20 63 117 244 93 10 5
46 25 56 119 247 100 21 9
54 29 49 122 254 107 29 15
55 31 48 123 264 118 32 23
54 34 49 122 273 132 39 34
57 38 46 121 278 142 53 47
63 44 39 122 283 146 68 59
67 49 34 124 292 150 77 65
73 54 34 127 303 161 83 68
81 60 33 128 311 178 90 72
88 68 24 127 317 195 98 78
92 76 11 126 324 207 106 84
98 83 5 127 337 220 117 93
110 91 7 130 352 236 134 105
122 102 5 132 366 254 151 117
126 113 -8 134 376 270 164 126
127 122 -24 137 386 288 176 132
133 128 -34 141 399 309 190 140
146 137 -39 142 415 332 205 151
159 150 -48 137 429 352 218 166
171 166 -63 132 439 371 234 185
185 179 -77 131 448 390 256 205
200 190 -88 132 459 410 278 224
211 201 -97 131 471 429 295 241
215 215 -107 127 483 449 312 259
217 229 -117 123 493 472 334 279
224 244 -127 122 503 493 361 298
236 257 -136 122 515 510 384 313
249 268 -146 117 527 527 400 327
258 277 -156 109 538 548 413 342
264 288 -166 102 547 571 429 356
269 301 -176 100 555 592 448 367
273 312 -185 98 561 610 468 376
276 321 -194 94 566 626 487 387
283 332 -205 88 571 639 503 400
294 343 -216 83 576 649 517 412
303 351 -224 78 581 659 527 425
307 354 -231 71 584 670 535 438
307 361 -239 63 586 683 542 449
309 375 -250 58 588 695 549 454
312 390 -259 54 590 703 556 454
313 396 -263 49 589 709 562 454
312 395 -264 44 586 712 566 459
311 396 -266 39 580 714 570 468
312 400 -268 34 571 712 571 478
311 403 -269 29 561 707 568 483
307 400 -268 24 551 698 561 478
300 394 -265 21 542 687 553 466
293 390 -259 20 532 673 547 454
286 385 -249 19 517 657 538 444
278 376 -239 20 498 639 522 434
268 361 -230 22 476 617 498 418
259 346 -220 24 454 590 473 395
250 334 -206 25 432 559 448 372
239 322 -190 24 410 527 420 351
224 307 -176 24 388 493 387 331
210 288 -161 24 366 459 356 307
197 269 -144 24 344 424 330 280
181 249 -127 24 322 390 303 254
162 227 -113 24 297 353 270 228
146 205 -98 24 268 312 234 200
135 186 -80 26 240 269 204 170
122 171 -59 29 220 234 181 146
103 156 -41 32 206 207 155 128
83 137 -29 34 190 181 122 107
71 115 -19 34 167 149 88 81
63 98 -10 34 142 117 63 59
52 87 1 34 123 93 45 48
39 78 15 34 112 73 29 39
28 63 29 34 101 50 10 22
20 44 39 34 83 24 -10 0
11 26 46 32 63 2 -28 -18
0 15 54 29 49 -15 -44 -29
-11 7 64 26 42 -32 -62 -40
-20 -0 73 24 34 -49 -78 -49
-26 -8 78 24 21 -64 -88 -54
-29 -15 83 24 10 -73 -93 -54
-31 -20 90 24 5 -79 -98 -55
-34 -24 98 24 -0 -88 -107 -59
-38 -31 102 24 -10 -101 -117 -67
-44 -39 102 24 -20 -112 -122 -78
-48 -47 103 24 -24 -119 -124 -91
-49 -54 107 24 -24 -122 -127 -102
-48 -59 112 24 -28 -127 -132 -109
-49 -63 117 24 -34 -132 -137 -112
-54 -65 120 24 -38 -136 -138 -113
-59 -68 122 24 -39 -137 -137 -112
-60 -71 123 24 -41 -139 -138 -111
-59 -73 122 24 -44 -142 -142 -112
-60 -73 121 24 -44 -145 -145 -114
-63 -73 122 24 -44 -146 -146 -117
-66 -75 124 24 -46 -145 -145 -118
-68 -78 127 24 -49 -146 -146 -117
-68 -79 128 24 -52 -149 -149 -116
-68 -78 127 24 -54 -151 -151 -117
-68 -78 124 22 -58 -152 -152 -120
-68 -78 122 20 -63 -151 -151 -122
-68 -78 121 19 -65 -151 -151 -122
-68 -78 122 20 -63 -151 -151 -122
-68 -80 125 22 -60 -151 -151 -124
-68 -83 127 24 -59 -151 -151 -127
-68 -84 128 25 -59 -151 -151 -130
-68 -83 127 24 -59 -151 -151 -132
-68 -82 127 22 -59 -150 -151 -133
-68 -83 127 20 -59 -151 -151 -132
-69 -83 127 20 -60 -152 -151 -130
-68 -83 127 20 -59 -151 -151 -127
-66 -82 127 20 -56 -146 -151 -126
-63 -83 127 20 -54 -142 -151 -127
-62 -84 127 21 -54 -142 -149 -128
-63 -83 127 24 -54 -142 -146 -127
-63 -80 127 27 -52 -140 -143 -124
-63 -78 127 29 -49 -137 -142 -122
-63 -77 127 30 -49 -136 -142 -122
-63 -78 127 29 -49 -137 -142 -122
-63 -78 125 28 -47 -135 -143 -121
-63 -78 122 29 -44 -132 -142 -122
-61 -78 119 32 -43 -131 -140 -124
-59 -78 117 34 -44 -132 -137 -127
-58 -78 117 35 -45 -133 -136 -128
-59 -78 117 34 -44 -132 -137 -127
-60 -79 117 33 -41 -129 -138 -127
-59 -78 117 34 -39 -127 -137 -127
-56 -77 117 36 -38 -126 -134 -127
-54 -78 117 39 -39 -127 -132 -127
-54 -80 117 42 -40 -128 -132 -128
-54 -78 117 44 -39 -127 -132 -127
-54 -72 117 44 -36 -122 -130 -123
-54 -68 117 44 -34 -117 -127 -117
-56 -72 117 46 -33 -113 -124 -113
-59 -78 117 49 -34 -112 -122 -112
-60 -80 117 50 -34 -112 -122 -114
-59 -78 117 49 -34 -112 -122 -117
-56 -77 117 49 -34 -113 -122 -118
-54 -78 117 49 -34 -112 -122 -117
-54 -79 117 49 -34 -109 -122 -115
-54 -78 117 49 -34 -107 -122 -112
-54 -75 115 49 -34 -106 -122 -111
-54 -73 112 49 -34 -107 -122 -112
-54 -72 111 49 -34 -107 -120 -115
-54 -73 112 49 -34 -107 -117 -117
-54 -76 115 49 -34 -107 -114 -117
-54 -78 117 49 -34 -107 -112 -117
-54 -78 117 49 -34 -107 -111 -117
-54 -78 117 49 -34 -107 -112 -117
-54 -78 117 49 -34 -107 -115 -118
-54 -78 117 49 -34 -107 -117 -122
-54 -78 117 51 -32 -106 -116 -125
-54 -78 117 54 -29 -107 -112 -122
-54 -78 119 57 -25 -109 -108 -115
-54 -78 122 59 -24 -112 -107 -112
-53 -78 123 59 -24 -113 -109 -116
-54 -78 122 59 -24 -112 -112 -122
-55 -78 119 59 -23 -110 -113 -124
-54 -78 117 59 -24 -107 -112 -122
-51 -77 117 59 -29 -104 -112 -121
-49 -78 117 59 -34 -102 -112 -122
-51 -80 117 59 -35 -104 -112 -122
-54 -83 117 59 -34 -107 -112 -122
-55 -84 117 60 -34 -108 -112 -124
-54 -83 117 59 -34 -107 -112 -127
-51 -82 117 56 -32 -106 -112 -127
-49 -83 117 54 -29 -107 -112 -127
-48 -84 118 53 -29 -110 -112 -127
-49 -83 117 54 -29 -112 -112 -127
-52 -82 116 54 -28 -112 -112 -123
-54 -83 117 54 -29 -112 -112 -117
-55 -86 119 54 -34 -114 -111 -114
-54 -88 117 54 -39 -117 -112 -117
-54 -89 110 54 -41 -118 -114 -123
-54 -88 107 54 -39 -117 -117 -127
-54 -88 111 54 -38 -117 -118 -128
-54 -88 117 54 -39 -117 -117 -127
-54 -88 119 55 -39 -117 -117 -127
-54 -88 117 54 -39 -117 -117 -127
-54 -88 116 51 -39 -119 -117 -124
-54 -88 117 49 -39 -122 -117 -117
-53 -88 115 48 -39 -123 -117 -108
-54 -88 112 49 -39 -122 -117 -102
-58 -88 111 49 -39 -119 -117 -104
-63 -88 112 49 -39 -117 -117 -112
-69 -87 113 49 -39 -117 -117 -121
-73 -88 112 49 -39 -117 -117 -127
-75 -91 111 49 -39 -115 -117 -128
-73 -93 112 49 -39 -112 -117 -127
-68 -93 113 49 -39 -109 -117 -127
-63 -93 112 49 -39 -107 -117 -127
-59 -95 109 47 -41 -107 -117 -127
-54 -98 107 44 -44 -107 -117 -127
-48 -101 106 43 -48 -107 -117 -129
-44 -102 107 44 -49 -107 -117 -132
-47 -102 107 45 -47 -107 -115 -134
-59 -102 107 44 -44 -107 -112 -132
-72 -102 107 43 -43 -107 -109 -127
-78 -102 107 44 -44 -107 -107 -122
-75 -101 107 47 -45 -107 -106 -120
-68 -98 107 49 -44 -107 -107 -122
-63 -94 107 50 -41 -107 -108 -124
-63 -93 107 49 -39 -107 -107 -122
-64 -95 108 49 -39 -107 -105 -118
-63 -98 107 49 -39 -107 -102 -117
-61 -98 105 49 -39 -107 -101 -120
-59 -98 102 49 -39 -107 -102 -122
-58 -98 100 49 -41 -108 -103 -122
-59 -98 98 49 -44 -107 -102 -122
-61 -96 95 50 -45 -104 -100 -121
-63 -93 93 49 -44 -102 -98 -117
-63 -92 92 47 -43 -101 -97 -112
-63 -93 93 44 -44 -102 -98 -117
-63 -94 93 43 -47 -102 -98 -132
-63 -93 93 44 -49 -102 -98 -142
-63 -92 93 47 -50 -102 -98 -137
-63 -93 93 49 -49 -102 -98 -122
-63 -94 93 50 -47 -102 -98 -113
-63 -93 93 49 -44 -102 -98 -112
-63 -91 93 48 -43 -102 -96 -113
-63 -93 93 49 -44 -102 -93 -112
-63 -99 91 49 -47 -102 -92 -111
-63 -102 88 49 -49 -102 -93 -112
-63 -99 85 50 -48 -102 -96 -112
-63 -93 83 54 -44 -102 -98 -112
-61 -91 80 59 -40 -102 -98 -112
-59 -93 78 59 -39 -102 -98 -112
-58 -94 77 53 -40 -102 -99 -112
-59 -93 78 49 -39 -102 -102 -112
-60 -93 78 53 -38 -102 -104 -112
-59 -93 78 59 -39 -102 -102 -112
-57 -93 78 61 -44 -101 -99 -110
-59 -93 78 59 -49 -98 -98 -107
-65 -93 78 58 -50 -94 -99 -103
-68 -93 78 59 -49 -93 -98 -102
-65 -91 78 60 -49 -95 -96 -104
-59 -88 78 59 -49 -98 -98 -107
-57 -87 78 59 -49 -99 -103 -108
-59 -88 78 59 -49 -98 -107 -107
-60 -88 78 59 -51 -98 -104 -106
-59 -88 78 59 -54 -98 -98 -107
-58 -88 79 59 -55 -98 -96 -109
-59 -88 78 59 -54 -98 -98 -112
-59 -88 76 59 -53 -100 -101 -113
-59 -88 73 59 -54 -102 -102 -112
-59 -88 72 59 -57 -103 -102 -111
-59 -88 73 59 -59 -102 -102 -112
-59 -88 74 59 -59 -102 -102 -115
-59 -88 73 59 -59 -102 -102 -117
-59 -88 71 59 -59 -102 -102 -118
-59 -88 68 59 -59 -102 -102 -117
-59 -88 65 59 -59 -104 -102 -117
-59 -88 63 59 -59 -107 -102 -117
-59 -88 63 59 -61 -110 -102 -117
-59 -88 63 59 -63 -112 -102 -117
-58 -88 63 59 -64 -114 -102 -117
-59 -88 63 59 -63 -117 -102 -117
-61 -88 63 59 -61 -119 -102 -117
-63 -88 63 59 -59 -117 -102 -117
-62 -88 63 59 -58 -110 -102 -117
-59 -88 63 59 -59 -102 -102 -117
-55 -88 63 59 -61 -98 -102 -117
-54 -88 63 59 -63 -98 -102 -117
-56 -88 63 59 -66 -100 -101 -117
-59 -88 63 59 -68 -102 -102 -117
-60 -88 63 59 -69 -102 -104 -117
-59 -88 63 59 -68 -102 -107 -117
-58 -86 63 59 -67 -102 -108 -117
-59 -83 63 59 -68 -102 -107 -117
-61 -81 62 59 -70 -102 -107 -117
-63 -83 59 59 -73 -102 -107 -117
-64 -89 56 59 -74 -103 -107 -116
-63 -93 54 59 -73 -107 -107 -117
-61 -92 54 59 -70 -113 -107 -120
-59 -88 54 59 -68 -117 -107 -122
-59 -87 52 60 -69 -116 -107 -120
-59 -88 49 63 -73 -112 -107 -117
-59 -89 48 66 -76 -108 -107 -116
-59 -88 49 68 -78 -107 -107 -117
-59 -88 49 68 -78 -107 -107 -118
-59 -88 49 68 -78 -107 -107 -117
-59 -88 49 68 -78 -107 -107 -116
-59 -88 49 68 -78 -107 -107 -117
-59 -88 47 68 -80 -109 -109 -119
-59 -88 44 68 -83 -112 -112 -122
-59 -88 41 68 -86 -115 -115 -125
-59 -88 39 68 -88 -117 -117 -127
-59 -88 39 68 -88 -117 -117 -127
-59 -88 39 68 -88 -117 -117 -127
-59 -88 39 68 -88 -117 -117 -127
-59 -88 39 68 -88 -117 -117 -127
-60 -90 39 68 -88 -117 -117 -127
-63 -93 39 68 -88 -117 -117 -127
-66 -96 39 68 -88 -117 -117 -127
-68 -98 39 68 -88 -117 -117 -127
-68 -98 39 68 -88 -117 -117 -127
-68 -98 39 68 -88 -117 -117 -127
-68 -98 39 68 -88 -117 -117 -127
-68 -98 39 68 -88 -117 -117 -127
-65 -96 37 68 -90 -117 -117 -127
-59 -93 34 68 -93 -117 -117 -127
-52 -90 31 68 -96 -117 -117 -126
-49 -88 29 68 -98 -117 -117 -127
-52 -88 29 68 -98 -117 -117 -131
-59 -88 29 68 -98 -117 -117 -137
-65 -88 29 68 -98 -117 -117 -143
-68 -88 29 68 -98 -117 -117 -146
-68 -88 29 68 -96 -117 -117 -143
-68 -88 29 68 -93 -117 -117 -137
-68 -88 29 68 -90 -117 -117 -131
-68 -88 29 68 -88 -117 -117 -127
-68 -88 29 68 -88 -117 -117 -126
-68 -88 29 68 -88 -117 -117 -127
-68 -88 29 68 -88 -117 -117 -128
-68 -88 29 68 -88 -117 -117 -127
-68 -88 31 70 -88 -117 -117 -123
-68 -88 34 73 -88 -117 -117 -117
-68 -88 37 76 -88 -117 -117 -110
-68 -88 39 78 -88 -117 -117 -107
-68 -86 39 79 -88 -117 -117 -111
-68 -83 39 78 -88 -117 -117 -122
-68 -80 39 77 -89 -118 -118 -133
-68 -78 39 78 -88 -117 -117 -137
-66 -76 39 82 -84 -113 -113 -132
-63 -73 39 88 -78 -107 -107 -122
-60 -70 39 94 -72 -101 -101 -112
-59 -68 39 98 -68 -98 -98 -107
-59 -66 39 99 -67 -98 -98 -106
-59 -63 39 98 -68 -98 -98 -107
-59 -60 38 97 -68 -98 -98 -107
-59 -59 39 98 -68 -98 -98 -107
-59 -59 41 99 -68 -98 -98 -107
-59 -59 44 98 -68 -98 -98 -107
-59 -59 47 97 -68 -97 -97 -107
-59 -59 49 98 -68 -98 -98 -107
-57 -60 51 101 -68 -99 -99 -107
-54 -59 49 102 -68 -98 -98 -107
-50 -56 44 101 -68 -95 -94 -106
-44 -54 39 102 -68 -93 -93 -107
-38 -54 36 105 -68 -94 -95 -108
-34 -54 34 107 -68 -93 -93 -107
-32 -49 28 104 -65 -87 -83 -101
-29 -39 15 98 -59 -78 -73 -93
-21 -25 0 94 -50 -71 -71 -85
-10 -10 -10 93 -39 -68 -73 -78
-1 1 -16 92 -28 -65 -72 -72
0 5 -24 88 -24 -63 -68 -68
-6 3 -35 82 -28 -62 -66 -68
-15 0 -44 78 -39 -63 -68 -73
-22 -3 -48 78 -51 -63 -69 -77
-24 -10 -49 78 -59 -63 -68 -78
-19 -21 -50 76 -63 -64 -66 -76
-10 -29 -49 73 -63 -68 -63 -78
-1 -29 -45 71 -63 -72 -60 -83
5 -29 -39 73 -68 -73 -59 -88
4 -37 -37 74 -76 -70 -63 -88
-5 -49 -39 73 -83 -68 -68 -88
-18 -56 -40 71 -84 -69 -72 -90
-29 -54 -34 73 -83 -73 -73 -93
-32 -51 -24 80 -82 -75 -73 -92
-29 -54 -15 88 -83 -73 -73 -88
-26 -61 -12 92 -84 -73 -74 -84
-29 -68 -10 93 -88 -78 -78 -83
-36 -73 -6 96 -94 -87 -86 -89
-44 -78 -0 102 -102 -93 -93 -102
-49 -85 4 105 -109 -95 -97 -119
-54 -93 5 102 -117 -98 -102 -132
-59 -99 5 94 -124 -104 -109 -135
-63 -102 5 88 -127 -107 -117 -132
-64 -104 5 86 -126 -106 -123 -129
-63 -107 5 83 -127 -107 -127 -132
-64 -112 5 76 -133 -114 -132 -139
-68 -117 5 68 -142 -122 -137 -146
-72 -118 5 65 -149 -124 -138 -150
-73 -117 5 68 -151 -122 -137 -151
-73 -116 3 72 -151 -121 -136 -149
-73 -117 -0 73 -151 -122 -137 -146
-73 -120 -3 73 -151 -123 -137 -145
-73 -122 -5 73 -151 -122 -137 -146
-72 -122 -5 73 -151 -122 -137 -145
-73 -122 -5 73 -151 -122 -137 -137
-75 -122 -5 73 -150 -122 -137 -125
-78 -122 -5 73 -151 -122 -137 -117
-79 -122 -5 73 -153 -124 -137 -119
-78 -122 -5 73 -156 -127 -137 -127
-78 -122 -5 73 -157 -128 -139 -133
-78 -122 -5 73 -156 -127 -142 -137
-78 -122 -5 73 -156 -127 -145 -140
-78 -122 -5 73 -156 -127 -146 -142
-78 -122 -5 73 -156 -127 -146 -143
-78 -122 -5 73 -156 -127 -146 -142
-78 -122 -5 73 -158 -129 -146 -142
-78 -122 -5 73 -161 -132 -146 -142
-78 -122 -5 73 -164 -135 -145 -142
-78 -122 -5 73 -166 -137 -146 -142
-78 -122 -5 75 -166 -137 -148 -143
-78 -122 -5 78 -166 -137 -151 -146
-80 -122 -5 81 -166 -137 -152 -147
-83 -122 -5 83 -166 -137 -151 -146
-86 -121 -7 83 -167 -137 -152 -143
-88 -122 -10 83 -171 -137 -156 -142
-89 -125 -13 83 -175 -137 -160 -142
-88 -127 -15 83 -176 -137 -161 -142
-89 -127 -15 83 -173 -135 -159 -141
-93 -127 -15 83 -171 -132 -156 -142
-98 -127 -15 83 -171 -131 -155 -144
-98 -127 -15 83 -171 -132 -156 -146
-95 -125 -17 84 -167 -133 -155 -145
-93 -122 -20 88 -161 -132 -151 -142
-95 -118 -24 94 -156 -128 -144 -138
-93 -112 -29 98 -151 -122 -137 -132
-86 -106 -33 99 -144 -117 -132 -125
-78 -102 -39 98 -137 -112 -127 -117
-76 -101 -46 98 -134 -107 -123 -113
-73 -98 -54 98 -132 -98 -117 -112
-62 -91 -60 99 -128 -89 -112 -112
-44 -83 -68 102 -117 -78 -107 -107
-29 -78 -75 110 -103 -69 -103 -98
-20 -73 -83 117 -88 -54 -93 -88
-13 -66 -92 124 -74 -37 -79 -83
-0 -54 -107 132 -63 -15 -63 -78
18 -46 -124 153 -48 5 -50 -74
39 -44 -137 185 -24 29 -34 -68
61 -40 -144 218 15 61 -11 -57
83 -20 -156 239 68 107 20 -34
101 15 -173 254 146 166 54 -2
117 54 -190 273 249 234 93 34
138 97 -209 294 361 320 148 74
176 156 -249 298 449 434 234 132
235 235 -315 284 521 579 350 217
303 317 -390 264 605 747 483 327
368 388 -455 245 716 941 633 451
420 454 -517 200 810 1162 805 581
460 530 -591 99 837 1391 991 717
488 615 -673 -63 781 1582 1162 849
504 698 -746 -265 668 1715 1300 971
508 776 -805 -488 512 1811 1416 1079
504 857 -863 -717 319 1888 1521 1173
488 932 -922 -927 88 1914 1592 1245
452 982 -962 -1097 -175 1842 1593 1275
395 982 -956 -1216 -468 1660 1509 1245
327 923 -908 -1282 -776 1392 1352 1153
264 815 -844 -1294 -1065 1075 1148 1021
215 683 -790 -1246 -1290 750 925 872
176 551 -747 -1153 -1436 459 712 722
141 436 -705 -1043 -1522 211 518 576
107 337 -659 -942 -1572 -15 332 434
79 253 -617 -855 -1576 -221 159 308
59 185 -581 -766 -1514 -371 24 205
45 134 -547 -672 -1400 -446 -64 122
34 93 -512 -586 -1289 -473 -127 49
25 57 -477 -524 -1211 -490 -184 -13
15 34 -444 -478 -1138 -488 -215 -49
-1 30 -412 -430 -1030 -449 -205 -56
-24 39 -376 -371 -893 -386 -176 -54
-52 44 -335 -311 -770 -336 -166 -65
-73 34 -293 -259 -678 -303 -176 -88
-83 11 -252 -212 -604 -278 -185 -109
-83 -15 -215 -161 -527 -249 -176 -117
-81 -39 -177 -103 -449 -222 -161 -115
-78 -54 -137 -44 -376 -190 -146 -102
-73 -64 -99 12 -309 -153 -132 -85
-63 -68 -73 59 -249 -117 -112 -68
-53 -72 -61 96 -201 -97 -92 -63
-49 -73 -59 117 -171 -88 -78 -68
-49 -73 -57 126 -154 -81 -73 -77
-49 -73 -54 127 -146 -73 -73 -83
-46 -75 -51 129 -136 -68 -73 -85
-44 -78 -49 132 -127 -68 -73 -83
-44 -81 -46 134 -118 -68 -75 -82
-44 -83 -44 132 -112 -68 -78 -83
-43 -83 -42 133 -105 -67 -79 -88
-44 -83 -44 137 -98 -68 -78 -93
-50 -83 -47 143 -91 -69 -75 -97
-54 -83 -49 146 -88 -68 -73 -98
-51 -81 -49 146 -84 -65 -72 -96
-44 -78 -49 146 -78 -63 -73 -93
-42 -77 -49 151 -72 -61 -74 -91
-44 -78 -49 156 -68 -59 -73 -93
-45 -81 -49 158 -65 -56 -70 -97
-44 -83 -49 156 -59 -54 -68 -98
-43 -83 -49 154 -49 -52 -66 -92
-44 -83 -49 156 -39 -49 -63 -83
-45 -81 -49 161 -34 -44 -58 -78
-44 -78 -49 166 -34 -39 -54 -78
-41 -73 -49 168 -33 -36 -53 -79
-39 -68 -49 166 -29 -34 -54 -78
-37 -67 -49 163 -25 -32 -54 -75
-34 -68 -49 161 -24 -29 -54 -73
-28 -69 -50 161 -23 -26 -53 -71
-24 -68 -49 161 -20 -24 -49 -68
-23 -67 -48 161 -17 -24 -43 -63
-24 -68 -49 161 -15 -24 -39 -59
-23 -71 -54 161 -15 -23 -39 -58
-20 -73 -59 161 -15 -20 -39 -59
-17 -71 -61 161 -11 -15 -33 -60
-15 -68 -59 161 -5 -10 -24 -59
-14 -68 -58 161 1 -6 -17 -57
-15 -68 -59 161 5 -5 -15 -54
-16 -66 -62 160 8 -6 -15 -52
-15 -63 -63 161 10 -5 -15 -49
-12 -60 -63 163 12 -1 -14 -45
-10 -59 -63 166 15 5 -10 -39
-10 -57 -64 167 20 11 -5 -35
-10 -54 -63 166 24 15 -0 -34
-6 -51 -62 165 26 16 3 -35
-0 -49 -63 166 29 15 5 -34
2 -47 -68 169 34 16 8 -31
-0 -44 -73 171 39 20 10 -29
-3 -40 -74 171 41 25 12 -30
0 -39 -73 171 44 29 15 -29
8 -42 -73 171 49 31 22 -23
15 -44 -73 171 54 34 29 -15
17 -43 -72 171 57 41 33 -11
15 -39 -73 171 59 49 34 -10
14 -36 -75 171 65 55 35 -8
15 -34 -78 171 73 59 39 -5
19 -32 -80 171 78 63 45 -1
24 -29 -83 171 78 68 54 5
30 -26 -89 172 76 75 62 10
34 -24 -93 171 78 83 68 10
35 -23 -93 168 85 91 70 4
34 -20 -93 166 93 98 73 0
34 -15 -95 165 98 104 78 6
34 -10 -98 166 102 112 83 20
36 -5 -99 166 107 122 89 33
44 0 -102 166 112 132 98 44
55 5 -109 166 116 137 109 54
63 10 -117 166 122 142 117 63
63 14 -120 164 130 150 121 67
63 20 -122 161 137 161 127 68
67 27 -128 160 141 170 140 71
73 34 -137 161 146 176 156 78
77 39 -143 164 155 182 167 87
83 44 -142 166 166 195 176 98
91 51 -142 165 175 215 185 110
98 59 -151 161 181 234 195 122
101 66 -164 157 188 247 203 132
107 73 -171 156 200 259 215 142
120 82 -169 159 215 275 232 154
132 93 -171 161 229 293 249 166
136 104 -184 161 239 310 263 177
137 112 -200 161 249 327 278 190
144 116 -208 162 262 348 297 205
156 122 -210 161 278 371 317 220
165 131 -214 157 292 392 333 232
171 142 -224 151 303 410 351 244
179 152 -235 148 312 427 373 258
190 161 -244 146 322 444 395 273
200 172 -253 143 334 461 412 288
205 185 -264 137 346 483 429 307
208 200 -274 133 356 508 451 331
215 215 -283 132 366 532 478 356
227 228 -293 132 377 550 501 378
239 239 -303 127 386 566 517 395
248 248 -312 117 391 585 531 407
254 259 -322 107 395 605 547 415
260 272 -332 101 399 623 564 419
264 283 -342 98 405 639 581 425
264 292 -351 93 410 655 596 436
264 303 -361 88 415 669 610 449
266 314 -370 83 418 679 624 462
268 322 -376 78 420 688 634 473
268 325 -378 71 420 698 640 483
268 332 -381 63 420 708 644 488
270 345 -386 57 421 713 648 485
273 356 -390 54 420 712 654 478
276 359 -390 51 416 711 660 474
278 356 -390 49 410 712 664 478
281 357 -392 47 403 713 666 488
283 361 -395 44 395 708 664 498
282 362 -396 39 386 698 656 501
278 356 -395 34 376 683 644 493
271 348 -392 31 365 667 631 476
264 342 -386 29 351 649 620 459
255 335 -376 28 333 627 607 446
244 322 -366 29 312 600 586 434
231 304 -357 32 290 570 557 417
220 288 -346 34 268 537 527 395
211 276 -330 34 248 503 498 372
200 264 -312 34 229 468 468 351
186 248 -295 35 210 432 435 331
171 229 -278 39 190 395 405 307
154 210 -260 42 168 358 379 278
132 190 -244 44 146 322 351 249
109 168 -230 44 121 285 316 220
93 146 -215 44 93 244 278 190
88 128 -196 46 65 202 246 160
83 117 -176 49 44 166 220 137
70 105 -158 52 30 137 193 119
54 88 -146 54 15 107 161 98
42 66 -136 54 -6 72 128 71
34 49 -127 54 -29 39 102 49
24 40 -115 54 -45 14 84 37
10 34 -102 54 -54 -5 68 29
-2 22 -90 54 -65 -26 51 14
-10 5 -83 54 -83 -49 34 -5
-17 -12 -79 54 -104 -68 19 -20
-24 -24 -73 54 -117 -83 5 -29
-32 -32 -63 54 -122 -99 -12 -39
-39 -39 -54 54 -127 -117 -29 -49
-45 -47 -48 54 -137 -133 -41 -57
-49 -54 -44 54 -146 -142 -49 -63
-52 -59 -37 54 -151 -148 -57 -70
-54 -63 -29 54 -156 -156 -68 -78
-58 -68 -24 54 -166 -169 -78 -84
-63 -73 -24 54 -176 -181 -83 -88
-67 -78 -23 54 -180 -187 -85 -93
-68 -83 -20 54 -181 -190 -88 -98
-67 -89 -15 54 -185 -194 -93 -101
-68 -93 -10 54 -190 -200 -98 -102
-73 -96 -7 52 -193 -204 -99 -102
-78 -98 -5 49 -195 -205 -98 -102
-79 -101 -5 46 -198 -207 -99 -102
-78 -102 -5 44 -200 -210 -102 -102
-79 -102 -4 44 -200 -212 -106 -104
-83 -102 0 44 -200 -210 -107 -107
-85 -104 6 44 -202 -206 -107 -108
-83 -107 10 44 -205 -205 -107 -107
-80 -108 11 43 -207 -207 -109 -106
-78 -107 10 39 -210 -210 -112 -107
-78 -107 7 34 -215 -211 -113 -110
-78 -107 5 29 -220 -210 -112 -112
-78 -107 4 28 -218 -210 -110 -112
-78 -107 5 29 -210 -210 -107 -112
-78 -109 8 32 -200 -210 -104 -112
-78 -112 10 34 -195 -210 -102 -112
-78 -113 11 35 -194 -210 -101 -112
-78 -112 10 34 -195 -210 -102 -112
-78 -112 10 31 -195 -209 -102 -112
-78 -112 10 29 -195 -210 -102 -112
-79 -111 10 29 -195 -211 -102 -110
-78 -107 10 29 -195 -210 -102 -107
-76 -103 10 29 -192 -205 -102 -106
-73 -102 10 29 -190 -200 -102 -107
-72 -102 10 31 -188 -198 -100 -108
-73 -102 10 34 -185 -195 -98 -107
-73 -100 10 37 -180 -190 -95 -104
-73 -98 10 39 -176 -185 -93 -102
-73 -99 10 39 -175 -184 -92 -102
-73 -102 10 39 -176 -185 -93 -102
-74 -105 10 39 -174 -184 -94 -100
-73 -107 10 39 -171 -181 -93 -98
-71 -107 10 40 -171 -180 -91 -97
-68 -107 10 39 -176 -181 -88 -98
-67 -107 10 37 -180 -182 -87 -98
-68 -107 10 34 -181 -181 -88 -98
-69 -108 12 32 -179 -178 -91 -98
-68 -107 15 29 -176 -176 -93 -98
-65 -106 18 26 -175 -175 -93 -98
-63 -107 20 24 -176 -176 -93 -98
-63 -109 20 24 -177 -177 -93 -98
-63 -107 20 24 -176 -176 -93 -98
-63 -101 20 24 -174 -173 -93 -96
-63 -98 20 24 -171 -171 -93 -93
-65 -101 20 26 -169 -171 -91 -91
-68 -107 20 29 -166 -171 -88 -93
-69 -109 20 30 -163 -171 -85 -96
-68 -107 20 29 -161 -171 -83 -98
-65 -106 20 27 -160 -171 -83 -94
-63 -107 20 24 -161 -171 -83 -83
-62 -108 22 22 -161 -168 -83 -70
-63 -107 24 20 -161 -166 -83 -63
-65 -104 25 20 -161 -165 -85 -66
-68 -102 24 20 -161 -166 -88 -78
-71 -101 23 20 -161 -166 -91 -91
-73 -102 24 20 -161 -166 -93 -98
-73 -105 27 18 -161 -166 -94 -99
-73 -107 29 15 -161 -166 -93 -98
-73 -107 29 12 -161 -166 -92 -98
-73 -107 29 10 -161 -166 -93 -98
-73 -107 29 10 -161 -166 -95 -99
-73 -107 29 10 -161 -166 -98 -102
-73 -107 29 10 -161 -165 -99 -104
-73 -107 29 10 -161 -166 -98 -102
-73 -107 31 10 -160 -168 -97 -96
-73 -107 34 10 -161 -171 -98 -93
-73 -107 35 10 -162 -172 -100 -97
-73 -107 34 10 -161 -171 -102 -102
-72 -107 33 10 -158 -169 -102 -103
-68 -107 34 10 -156 -166 -102 -102
-64 -106 37 11 -158 -164 -102 -101
-63 -107 39 10 -161 -166 -102 -102
-67 -109 39 8 -161 -171 -102 -102
-73 -112 39 5 -161 -176 -102 -102
-75 -113 39 3 -162 -178 -102 -104
-73 -112 39 -0 -161 -176 -102 -107
-70 -111 41 -3 -157 -174 -102 -108
-68 -112 44 -5 -151 -176 -102 -107
-67 -112 48 -5 -148 -179 -102 -107
-68 -112 49 -5 -146 -181 -102 -107
-70 -111 48 -6 -145 -181 -102 -105
-73 -112 49 -10 -146 -181 -102 -102
-74 -115 51 -13 -151 -183 -101 -102
-73 -117 49 -15 -156 -185 -102 -107
-73 -118 43 -15 -157 -185 -104 -113
-73 -117 39 -15 -156 -185 -107 -117
-73 -117 42 -15 -155 -185 -108 -118
-73 -117 49 -15 -156 -185 -107 -117
-73 -117 53 -14 -156 -185 -107 -116
-73 -117 54 -15 -156 -185 -107 -117
-73 -117 57 -17 -156 -187 -107 -118
-73 -117 59 -20 -156 -190 -107 -117
-72 -117 58 -22 -154 -191 -107 -115
-73 -117 54 -24 -151 -190 -107 -112
-75 -117 53 -27 -148 -187 -107 -111
-78 -117 54 -29 -146 -185 -107 -112
-80 -116 55 -29 -146 -184 -107 -113
-83 -117 54 -29 -146 -185 -107 -112
-85 -119 53 -29 -146 -185 -107 -109
-83 -122 54 -29 -146 -185 -107 -107
-78 -123 55 -29 -146 -185 -107 -107
-73 -122 54 -29 -146 -185 -107 -107
-71 -122 51 -31 -146 -185 -107 -107
-73 -122 49 -34 -146 -185 -107 -107
-74 -122 48 -37 -146 -185 -107 -109
-73 -122 49 -39 -146 -185 -107 -112
-72 -122 49 -41 -144 -185 -107 -113
-73 -122 49 -44 -142 -185 -107 -112
-76 -122 50 -47 -141 -185 -107 -110
-78 -122 54 -49 -142 -185 -107 -112
-78 -122 57 -49 -143 -185 -107 -117
-78 -122 59 -49 -142 -185 -107 -122
-80 -121 59 -49 -139 -185 -107 -120
-83 -122 59 -49 -137 -185 -107 -112
-84 -125 60 -49 -137 -185 -106 -103
-83 -127 59 -49 -137 -185 -107 -102
-80 -127 57 -49 -137 -185 -109 -107
-78 -127 54 -49 -137 -185 -112 -112
-77 -127 53 -49 -137 -185 -113 -112
-78 -127 54 -49 -137 -185 -112 -112
-81 -125 54 -49 -135 -184 -111 -113
-83 -122 54 -49 -132 -185 -112 -112
-84 -121 53 -51 -131 -187 -115 -107
-83 -122 54 -54 -132 -190 -117 -107
-83 -123 56 -57 -135 -191 -118 -115
-83 -122 59 -59 -137 -190 -117 -122
-83 -121 62 -59 -138 -190 -117 -119
-83 -122 63 -59 -137 -190 -117 -112
-83 -123 63 -59 -134 -190 -117 -109
-83 -122 63 -59 -132 -190 -117 -112
-83 -120 63 -59 -131 -190 -115 -113
-83 -122 63 -59 -132 -190 -112 -112
-83 -128 62 -60 -134 -190 -109 -111
-83 -132 63 -63 -137 -190 -107 -112
-83 -128 65 -67 -138 -190 -107 -113
-83 -122 68 -68 -137 -190 -107 -112
-81 -118 69 -66 -136 -190 -107 -112
-78 -117 68 -68 -137 -190 -107 -112
-77 -115 68 -74 -138 -190 -108 -112
-78 -112 68 -78 -137 -190 -112 -112
-79 -111 68 -75 -134 -190 -116 -112
-78 -112 68 -68 -132 -190 -117 -112
-76 -112 68 -66 -134 -190 -117 -112
-78 -112 68 -68 -137 -190 -117 -112
-85 -114 68 -71 -137 -189 -118 -111
-88 -117 68 -73 -137 -190 -117 -112
-84 -118 67 -75 -137 -193 -115 -114
-78 -117 68 -78 -137 -195 -117 -117
-78 -116 70 -79 -133 -195 -123 -118
-83 -117 73 -78 -127 -195 -127 -117
-87 -117 76 -78 -123 -195 -124 -114
-88 -117 78 -78 -122 -195 -117 -112
-88 -117 79 -78 -122 -194 -114 -111
-88 -117 78 -78 -122 -195 -117 -112
-88 -117 75 -78 -121 -197 -121 -112
-88 -117 73 -78 -122 -200 -122 -112
-88 -117 72 -78 -125 -201 -122 -111
-88 -117 73 -78 -127 -200 -122 -112
-88 -117 74 -78 -127 -199 -122 -114
-88 -117 73 -78 -127 -200 -122 -117
-88 -117 71 -78 -127 -200 -122 -119
-88 -117 68 -78 -127 -200 -122 -122
-88 -117 67 -78 -127 -200 -122 -125
-88 -117 68 -78 -127 -200 -122 -127
-86 -117 71 -80 -129 -201 -125 -127
-83 -117 73 -83 -132 -205 -132 -127
-79 -117 73 -86 -133 -210 -139 -127
-78 -117 73 -88 -132 -215 -142 -127
-80 -117 74 -88 -129 -217 -136 -124
-83 -117 78 -88 -127 -215 -122 -117
-84 -117 81 -88 -126 -210 -108 -110
-83 -117 83 -88 -127 -205 -102 -107
-82 -117 83 -88 -129 -203 -105 -110
-83 -117 83 -88 -132 -205 -112 -117
-85 -117 83 -88 -135 -208 -118 -124
-88 -117 83 -88 -137 -210 -122 -127
-89 -117 82 -88 -136 -210 -125 -127
-88 -117 83 -88 -132 -210 -127 -127
-85 -115 84 -88 -128 -210 -127 -127
-83 -112 83 -88 -127 -210 -127 -127
-84 -110 80 -89 -129 -211 -127 -127
-88 -112 78 -93 -132 -215 -127 -127
-92 -118 80 -97 -133 -221 -127 -127
-93 -122 83 -98 -132 -224 -127 -127
-91 -121 83 -96 -131 -223 -127 -127
-88 -117 83 -93 -132 -220 -127 -127
-85 -114 85 -92 -133 -219 -127 -127
-83 -112 88 -93 -132 -220 -127 -127
-80 -111 89 -93 -129 -220 -127 -125
-78 -112 88 -93 -127 -220 -127 -122
-77 -114 87 -95 -126 -222 -127 -118
-78 -117 88 -98 -127 -224 -127 -117
-78 -118 88 -99 -127 -225 -127 -118
-78 -117 88 -98 -127 -224 -127 -122
-78 -117 87 -98 -127 -223 -127 -125
-78 -117 88 -98 -127 -224 -127 -127
-78 -117 90 -98 -127 -224 -127 -127
-78 -117 93 -98 -127 -224 -127 -127
-78 -117 96 -98 -127 -224 -127 -127
-78 -117 98 -98 -127 -224 -127 -127
-78 -117 98 -98 -127 -224 -127 -127
-78 -117 98 -98 -127 -224 -127 -127
-78 -117 98 -98 -127 -224 -127 -127
-78 -117 98 -98 -127 -224 -127 -127
-78 -115 99 -98 -127 -224 -127 -124
-78 -112 102 -98 -127 -224 -127 -117
-78 -109 105 -98 -127 -224 -127 -110
-78 -107 107 -98 -127 -224 -127 -107
-78 -107 108 -98 -127 -226 -127 -112
-78 -107 107 -98 -127 -229 -127 -122
-78 -107 106 -98 -127 -232 -127 -132
-78 -107 107 -98 -127 -234 -127 -137
-78 -107 109 -96 -125 -234 -125 -134
-78 -107 112 -93 -122 -234 -122 -127
-78 -107 115 -90 -119 -234 -119 -120
-78 -107 117 -88 -117 -234 -117 -117
-76 -107 119 -86 -116 -234 -117 -116
-73 -107 122 -83 -117 -234 -117 -117
-70 -108 125 -80 -118 -234 -117 -117
-68 -107 127 -78 -117 -234 -117 -117
-66 -104 128 -77 -115 -234 -117 -117
-63 -98 127 -78 -112 -234 -117 -117
-60 -92 126 -79 -109 -234 -117 -117
-59 -88 127 -78 -107 -234 -117 -117
-59 -84 131 -74 -103 -234 -115 -117
-59 -78 137 -68 -98 -234 -112 -117
-59 -72 143 -62 -92 -234 -109 -117
-59 -68 146 -59 -88 -234 -107 -117
-59 -67 147 -58 -85 -234 -105 -115
-59 -68 146 -59 -83 -234 -102 -112
-59 -68 145 -59 -80 -233 -99 -109
-59 -68 146 -59 -78 -234 -98 -107
-59 -68 149 -59 -78 -235 -99 -107
-59 -68 151 -59 -78 -234 -98 -107
-59 -67 153 -59 -77 -232 -96 -107
-59 -68 156 -59 -78 -234 -98 -107
-58 -70 158 -59 -79 -240 -104 -108
-54 -68 156 -59 -78 -244 -107 -107
-49 -61 149 -59 -73 -241 -102 -103
-44 -54 142 -59 -68 -234 -93 -98
-40 -49 138 -61 -64 -229 -86 -93
-34 -44 132 -63 -59 -224 -83 -88
-26 -34 122 -64 -51 -217 -79 -82
-20 -24 112 -63 -44 -210 -73 -78
-18 -20 105 -64 -42 -206 -69 -77
-20 -20 98 -68 -44 -205 -68 -78
-21 -17 87 -74 -45 -203 -68 -77
-20 -10 78 -78 -44 -200 -68 -73
-17 -5 76 -78 -45 -199 -67 -68
-15 -10 78 -78 -49 -200 -68 -63
-14 -21 78 -80 -53 -202 -69 -59
-15 -29 78 -83 -54 -205 -68 -59
-16 -29 80 -84 -55 -208 -67 -64
-15 -29 83 -83 -59 -210 -68 -68
-13 -35 82 -82 -67 -209 -73 -69
-15 -44 78 -83 -73 -210 -78 -68
-21 -47 77 -85 -74 -214 -81 -70
-29 -44 83 -83 -73 -220 -83 -73
-32 -41 93 -78 -72 -222 -84 -76
-29 -44 102 -73 -73 -220 -83 -78
-24 -50 107 -72 -75 -219 -80 -80
-24 -54 112 -73 -78 -224 -78 -83
-28 -56 119 -70 -83 -233 -78 -86
-34 -59 127 -63 -88 -239 -83 -93
-39 -65 131 -58 -93 -241 -92 -105
-44 -73 132 -59 -98 -244 -107 -117
-50 -79 132 -62 -104 -250 -123 -123
-54 -83 132 -63 -107 -254 -132 -122
-55 -87 132 -61 -107 -253 -130 -120
-54 -93 132 -63 -107 -254 -122 -122
-55 -101 131 -70 -111 -260 -117 -127
-59 -107 132 -78 -117 -268 -117 -132
-62 -109 134 -81 -121 -270 -121 -137
-63 -107 137 -78 -122 -268 -127 -142
-63 -106 140 -74 -122 -267 -133 -146
-63 -107 142 -73 -122 -268 -137 -146
-63 -110 142 -73 -122 -268 -138 -142
-63 -112 142 -73 -122 -268 -137 -137
-62 -112 142 -73 -122 -268 -136 -136
-63 -112 142 -73 -122 -268 -137 -137
-66 -112 142 -75 -121 -267 -137 -137
-68 -112 142 -78 -122 -268 -137 -137
-69 -112 142 -81 -124 -270 -136 -137
-68 -112 142 -83 -127 -273 -137 -137
-68 -112 142 -83 -128 -274 -139 -137
-68 -112 142 -83 -127 -273 -142 -137
-68 -112 142 -83 -127 -273 -145 -139
-68 -112 142 -83 -127 -273 -146 -142
-68 -112 142 -83 -127 -273 -146 -143
-68 -112 142 -83 -127 -273 -146 -142
-68 -112 142 -83 -127 -275 -146 -141
-68 -112 142 -83 -127 -278 -146 -142
-68 -112 142 -83 -127 -281 -145 -145
-68 -112 142 -83 -127 -283 -146 -151
-68 -112 142 -83 -127 -283 -148 -160
-68 -112 142 -83 -127 -283 -151 -166
-70 -112 142 -81 -126 -283 -152 -164
-73 -112 142 -78 -122 -283 -151 -156
-76 -111 142 -75 -118 -283 -150 -147
-78 -112 142 -73 -117 -283 -151 -142
-79 -115 142 -73 -118 -283 -152 -141
-78 -117 142 -73 -117 -283 -151 -142
-77 -117 142 -73 -114 -281 -149 -142
-78 -117 142 -73 -112 -278 -146 -142
-80 -117 143 -73 -113 -275 -145 -141
-78 -117 146 -73 -112 -273 -146 -137
-74 -115 149 -72 -108 -271 -147 -131
-73 -112 151 -68 -102 -268 -146 -127
-76 -108 150 -63 -98 -264 -143 -129
-78 -102 146 -59 -93 -259 -137 -132
-74 -97 142 -59 -87 -255 -132 -132
-68 -93 137 -59 -78 -249 -127 -127
-65 -92 130 -59 -73 -241 -123 -123
-63 -88 122 -59 -68 -229 -117 -122
-57 -81 115 -59 -61 -220 -112 -122
-49 -73 107 -59 -49 -210 -107 -117
-44 -68 100 -56 -35 -201 -103 -108
-39 -63 93 -54 -20 -185 -93 -98
-29 -56 83 -51 -7 -166 -80 -89
-10 -44 68 -44 5 -142 -63 -78
14 -34 53 -23 22 -118 -49 -67
39 -29 44 10 49 -93 -34 -59
62 -27 41 47 90 -64 -16 -53
83 -15 34 73 142 -24 10 -39
100 10 20 91 220 31 42 -13
112 44 5 107 327 98 78 20
123 86 -12 122 446 175 124 54
142 146 -49 122 537 268 190 98
179 224 -112 106 607 395 289 169
234 307 -185 88 693 566 420 273
300 381 -251 80 816 782 580 399
366 449 -312 59 927 1021 756 532
421 524 -382 -11 969 1252 939 668
459 605 -459 -146 927 1455 1114 810
481 685 -530 -333 836 1633 1277 954
488 761 -590 -547 708 1792 1426 1084
480 837 -647 -765 530 1907 1547 1182
454 913 -703 -972 283 1933 1616 1245
411 980 -748 -1155 -19 1855 1622 1276
361 1016 -761 -1304 -351 1694 1572 1275
313 994 -735 -1397 -688 1462 1459 1226
268 898 -678 -1416 -1006 1143 1270 1119
223 747 -612 -1362 -1274 758 1018 964
176 586 -551 -1265 -1470 386 761 791
134 458 -501 -1162 -1588 91 544 627
102 366 -459 -1070 -1641 -137 361 478
82 296 -422 -979 -1631 -330 198 349
68 234 -386 -878 -1553 -478 63 244
56 181 -349 -776 -1426 -558 -30 160
44 137 -312 -688 -1299 -586 -98 88
34 101 -277 -627 -1204 -600 -159 24
24 78 -244 -581 -1119 -600 -200 -20
9 72 -211 -536 -1009 -569 -203 -38
-15 78 -176 -483 -874 -512 -181 -44
-45 82 -137 -431 -748 -459 -170 -57
-68 73 -98 -386 -644 -420 -176 -78
-77 50 -62 -345 -556 -391 -183 -95
-73 20 -29 -298 -468 -361 -176 -102
-67 -10 5 -242 -380 -333 -164 -106
-63 -34 44 -185 -298 -298 -151 -107
-61 -51 83 -132 -225 -260 -140 -106
-54 -59 112 -88 -161 -224 -122 -98
-45 -63 125 -52 -109 -201 -103 -90
-39 -63 127 -29 -73 -185 -88 -83
-39 -63 127 -15 -51 -170 -83 -82
-39 -63 127 -10 -39 -156 -83 -83
-37 -63 128 -6 -28 -148 -83 -84
-34 -63 127 -5 -20 -146 -83 -83
-34 -63 127 -6 -12 -146 -85 -82
-34 -63 127 -10 -5 -146 -88 -83
-33 -63 127 -12 5 -144 -90 -86
-34 -63 127 -10 15 -142 -88 -88
-40 -65 127 -4 24 -139 -85 -89
-44 -68 127 0 29 -137 -83 -88
-41 -69 127 -0 33 -134 -82 -86
-34 -68 127 0 39 -132 -83 -83
-32 -67 127 6 47 -130 -84 -81
-34 -68 127 15 54 -127 -83 -83
-35 -71 127 20 60 -124 -80 -89
-34 -73 127 20 68 -122 -78 -93
-33 -72 127 18 79 -120 -76 -90
-34 -68 127 20 88 -117 -73 -83
-35 -65 127 25 92 -112 -67 -78
-34 -63 127 29 93 -107 -63 -78
-31 -61 127 30 95 -104 -62 -79
-29 -59 127 29 98 -102 -63 -78
-29 -58 127 28 101 -100 -63 -77
-29 -59 127 29 102 -98 -63 -78
-27 -60 126 32 103 -95 -62 -79
-24 -59 127 34 107 -93 -59 -78
-23 -56 128 34 112 -91 -53 -73
-24 -54 127 34 117 -88 -49 -68
-23 -54 122 34 120 -83 -49 -66
-20 -54 117 34 122 -78 -49 -68
-17 -52 115 34 126 -73 -46 -69
-15 -49 117 34 132 -68 -39 -68
-14 -48 118 34 138 -63 -33 -65
-15 -49 117 34 142 -59 -29 -63
-16 -48 114 34 145 -55 -26 -61
-15 -44 112 34 146 -49 -24 -59
-12 -41 112 36 147 -42 -23 -55
-10 -39 112 39 151 -34 -20 -49
-10 -39 111 40 157 -28 -15 -45
-10 -39 112 39 161 -24 -10 -44
-6 -39 113 38 163 -24 -5 -42
-0 -39 112 39 166 -24 0 -34
3 -38 107 42 171 -22 6 -24
0 -34 102 44 176 -15 10 -20
-6 -30 100 44 178 -6 12 -27
-10 -29 98 44 181 -0 15 -39
-10 -30 95 44 185 2 22 -46
-5 -29 93 44 190 5 29 -44
2 -23 93 44 192 13 33 -34
10 -15 93 44 195 24 34 -20
18 -8 91 44 201 33 35 -5
24 -5 88 44 210 39 39 5
29 -3 86 43 215 44 45 10
34 -0 83 44 215 49 54 15
40 3 77 47 215 55 62 23
44 5 73 49 220 63 68 29
43 7 73 50 230 71 70 30
39 10 73 49 239 78 73 29
36 13 71 49 245 84 77 32
34 15 68 49 249 93 83 39
36 17 66 49 254 107 90 46
44 20 63 49 259 122 102 54
56 24 56 51 264 134 116 64
63 29 49 54 273 146 127 73
63 33 46 55 285 160 131 77
63 39 44 54 298 176 137 78
67 47 38 53 306 188 150 81
73 54 29 54 312 195 166 88
77 58 23 56 321 201 179 97
83 59 24 59 332 215 190 107
91 62 24 60 341 235 203 118
98 68 15 59 346 254 215 127
101 75 2 58 351 268 224 134
107 83 -5 59 361 283 234 142
120 91 -3 62 374 301 250 153
132 102 -5 63 386 322 268 166
136 113 -17 63 395 341 285 179
137 122 -34 63 405 361 303 195
144 129 -44 64 418 384 323 212
156 137 -49 63 434 410 342 229
165 148 -56 59 448 433 356 242
171 161 -68 54 459 454 371 254
179 172 -79 53 467 476 392 268
190 181 -88 54 478 498 415 283
200 192 -97 53 491 521 433 299
205 205 -107 49 503 547 449 317
208 219 -117 45 513 575 471 337
215 234 -127 44 522 600 498 356
225 246 -135 44 532 618 523 371
234 254 -142 39 542 634 542 386
240 259 -148 31 549 655 559 401
244 268 -156 24 556 678 576 415
249 281 -166 22 563 699 593 425
254 293 -176 20 571 717 610 434
258 302 -186 15 577 733 625 446
264 312 -195 10 581 747 639 459
272 323 -204 7 584 757 651 469
278 332 -210 5 586 766 659 478
279 336 -214 1 586 779 664 489
278 342 -220 -5 586 791 669 498
278 354 -228 -10 585 798 675 501
278 366 -234 -15 581 800 683 498
276 369 -235 -20 574 800 689 495
273 366 -234 -24 566 800 693 498
272 364 -236 -25 559 799 694 506
273 366 -239 -24 551 795 693 517
272 366 -240 -23 542 788 688 523
268 361 -239 -24 532 776 678 517
261 355 -236 -26 521 757 663 500
254 351 -229 -29 508 732 644 478
247 346 -220 -30 490 705 623 459
239 337 -210 -29 468 678 600 444
229 324 -201 -25 446 651 574 427
220 312 -190 -20 425 620 547 405
211 303 -176 -17 403 585 519 382
200 293 -161 -15 381 547 488 361
186 278 -149 -13 359 508 455 341
171 259 -137 -10 337 468 425 317
157 239 -122 -7 315 428 399 290
142 220 -107 -5 293 390 371 264
125 199 -93 -3 270 352 336 238
112 176 -78 0 244 312 298 210
104 156 -59 5 219 270 265 180
93 142 -39 10 200 234 239 156
76 129 -22 14 187 205 212 138
59 112 -10 15 171 176 181 117
49 93 1 15 147 141 148 90
44 78 10 15 122 107 122 68
34 70 19 15 104 82 104 57
20 63 29 15 93 63 88 49
7 51 40 15 81 40 69 32
-0 34 49 15 63 15 49 10
-5 17 54 15 44 -7 31 -9
-10 5 59 15 34 -24 15 -20
-15 -3 66 15 30 -41 -3 -30
-20 -10 73 15 24 -59 -20 -39
-25 -17 78 15 11 -74 -32 -47
-29 -24 83 15 0 -83 -39 -54
-32 -29 91 15 -6 -90 -48 -62
-34 -34 98 15 -10 -98 -59 -68
-38 -39 100 15 -19 -109 -69 -71
-44 -44 98 15 -29 -117 -73 -73
-49 -49 96 15 -33 -120 -75 -77
-49 -54 98 15 -34 -122 -78 -83
-46 -59 103 15 -38 -126 -84 -89
-44 -63 107 15 -44 -132 -88 -93
-46 -66 110 15 -48 -136 -89 -94
-49 -68 112 15 -49 -137 -88 -93
-50 -69 113 15 -51 -139 -89 -92
-49 -68 112 15 -54 -142 -93 -93
-50 -65 111 15 -55 -145 -97 -95
-54 -63 112 15 -54 -146 -98 -98
-57 -65 114 15 -54 -145 -99 -99
-59 -68 117 15 -54 -146 -102 -98
-59 -69 118 16 -53 -149 -108 -97
-59 -68 117 15 -54 -151 -112 -98
-59 -66 114 13 -58 -152 -113 -100
-59 -63 112 10 -63 -151 -112 -102
-59 -60 111 9 -65 -151 -111 -102
-59 -59 112 10 -63 -151 -112 -102
-59 -61 115 12 -60 -151 -112 -102
-59 -63 117 15 -59 -151 -112 -102
-59 -64 118 16 -59 -151 -112 -102
-59 -63 117 15 -59 -151 -112 -102
-59 -62 115 12 -58 -150 -112 -102
-59 -63 112 10 -59 -151 -112 -102
-60 -63 109 10 -60 -153 -112 -101
-59 -63 107 10 -59 -151 -112 -98
-57 -63 107 10 -56 -144 -112 -95
-54 -63 107 10 -54 -137 -112 -93
-53 -63 107 12 -54 -133 -110 -91
-54 -63 107 15 -54 -132 -107 -88
-54 -62 107 18 -52 -129 -104 -85
-54 -63 107 20 -49 -127 -102 -83
-54 -66 107 21 -49 -127 -101 -83
-54 -68 107 20 -49 -127 -102 -83
-55 -68 107 19 -47 -125 -102 -81
-54 -68 107 20 -44 -122 -102 -78
-52 -68 107 22 -43 -121 -100 -77
-49 -68 107 24 -44 -122 -98 -78
-48 -68 107 24 -45 -123 -97 -78
-49 -68 107 24 -44 -122 -98 -78
-50 -69 107 24 -41 -120 -99 -78
-49 -68 107 24 -39 -117 -98 -78
-46 -67 107 24 -38 -114 -95 -78
-44 -68 107 24 -39 -112 -93 -78
-44 -70 107 24 -40 -110 -92 -78
-44 -68 107 24 -39 -107 -93 -78
-44 -60 107 23 -36 -104 -93 -76
-44 -54 107 24 -34 -102 -93 -73
-46 -54 107 26 -33 -102 -93 -72
-49 -59 107 29 -34 -102 -93 -73
-50 -61 105 30 -34 -102 -93 -76
-49 -59 102 29 -34 -102 -93 -78
-46 -58 99 29 -34 -102 -93 -79
-44 -59 98 29 -34 -102 -93 -78
-44 -60 99 29 -34 -100 -93 -76
-44 -59 102 29 -34 -98 -93 -73
-44 -56 103 29 -34 -97 -93 -72
-44 -54 102 29 -34 -98 -93 -73
-44 -53 101 29 -34 -98 -93 -76
-44 -54 102 29 -34 -98 -93 -78
-44 -56 105 29 -34 -98 -93 -79
-44 -59 107 29 -34 -98 -93 -78
-44 -61 107 27 -34 -98 -92 -74
-44 -63 107 24 -34 -98 -93 -68
-44 -66 107 21 -34 -98 -95 -62
-44 -68 107 20 -34 -98 -98 -63
-44 -68 105 20 -34 -97 -100 -69
-44 -68 102 20 -34 -98 -102 -73
-44 -68 101 20 -34 -100 -104 -73
-44 -68 102 20 -34 -102 -107 -73
-44 -68 103 20 -35 -103 -110 -77
-44 -68 102 20 -34 -102 -112 -83
-45 -68 100 20 -32 -100 -112 -84
-44 -68 98 20 -34 -98 -112 -83
-43 -67 98 20 -39 -97 -112 -82
-44 -68 98 20 -44 -98 -112 -83
-49 -70 98 20 -45 -102 -112 -83
-54 -73 98 20 -44 -107 -112 -83
-56 -74 99 21 -44 -108 -112 -85
-54 -73 102 20 -44 -107 -112 -88
-51 -72 105 18 -42 -106 -112 -88
-49 -73 107 15 -39 -107 -112 -88
-48 -74 108 14 -37 -108 -112 -88
-49 -73 107 15 -34 -107 -112 -88
-52 -72 106 16 -30 -104 -112 -84
-54 -73 107 15 -29 -102 -112 -78
-55 -76 109 13 -33 -104 -111 -75
-54 -78 107 10 -39 -107 -112 -78
-54 -79 101 7 -41 -108 -114 -84
-54 -78 98 5 -39 -107 -117 -88
-54 -78 101 4 -36 -105 -118 -89
-54 -78 107 5 -34 -102 -117 -88
-54 -78 108 6 -31 -99 -117 -87
-54 -78 107 5 -29 -98 -117 -88
-54 -78 107 2 -28 -99 -117 -92
-54 -78 107 0 -29 -102 -117 -98
-53 -78 105 -1 -29 -103 -117 -102
-54 -78 102 -0 -29 -102 -117 -102
-56 -80 101 0 -29 -100 -117 -97
-59 -83 102 0 -29 -98 -117 -88
-61 -86 103 0 -29 -98 -117 -80
-63 -88 102 -0 -29 -98 -117 -78
-66 -91 101 -0 -31 -98 -117 -83
-68 -93 102 0 -34 -98 -117 -93
-66 -94 103 1 -37 -98 -117 -103
-63 -93 102 -0 -39 -98 -117 -107
-62 -93 100 -2 -39 -96 -115 -104
-63 -93 98 -5 -39 -93 -112 -98
-64 -93 97 -6 -39 -90 -109 -93
-63 -93 98 -5 -39 -88 -107 -93
-61 -91 98 -4 -37 -88 -107 -94
-59 -88 98 -5 -34 -88 -107 -93
-59 -85 98 -6 -33 -88 -107 -88
-59 -83 98 -5 -34 -88 -107 -83
-59 -83 98 -4 -35 -88 -107 -81
-59 -83 98 -5 -34 -88 -107 -83
-61 -82 98 -8 -31 -88 -107 -85
-63 -83 98 -10 -29 -88 -107 -83
-64 -86 99 -11 -29 -88 -106 -81
-63 -88 98 -10 -29 -88 -107 -83
-61 -88 95 -10 -29 -88 -109 -89
-59 -88 93 -10 -29 -88 -112 -93
-61 -88 92 -10 -29 -89 -113 -93
-68 -88 93 -10 -29 -88 -112 -93
-77 -86 93 -9 -27 -85 -109 -93
-83 -83 93 -10 -24 -83 -107 -88
-81 -82 93 -12 -23 -82 -107 -80
-73 -83 93 -15 -24 -83 -107 -78
-66 -84 93 -16 -27 -83 -107 -86
-63 -83 93 -15 -29 -83 -107 -93
-63 -82 93 -12 -30 -83 -108 -91
-63 -83 93 -10 -29 -83 -112 -83
-63 -84 93 -9 -27 -83 -116 -80
-63 -83 93 -10 -24 -83 -117 -83
-63 -81 94 -11 -23 -83 -115 -85
-63 -83 93 -10 -24 -83 -112 -83
-62 -89 90 -9 -26 -83 -110 -81
-63 -93 88 -10 -29 -83 -112 -83
-65 -89 87 -11 -32 -83 -115 -87
-68 -83 88 -10 -34 -83 -117 -93
-69 -81 88 -8 -37 -83 -117 -99
-68 -83 88 -10 -39 -83 -117 -102
-67 -84 88 -16 -40 -83 -119 -100
-68 -83 88 -20 -39 -83 -122 -93
-69 -82 88 -16 -38 -83 -124 -86
-68 -83 88 -10 -39 -83 -122 -83
-66 -83 88 -8 -42 -83 -118 -83
-68 -83 88 -10 -44 -83 -117 -83
-74 -83 88 -11 -42 -82 -118 -83
-78 -83 88 -10 -39 -83 -117 -83
-74 -81 88 -11 -38 -86 -115 -85
-68 -78 88 -15 -39 -88 -117 -88
-66 -77 88 -19 -39 -88 -123 -89
-68 -78 88 -20 -39 -88 -127 -88
-69 -78 88 -20 -39 -88 -124 -85
-68 -78 88 -20 -39 -88 -117 -83
-67 -78 89 -20 -37 -88 -114 -82
-68 -78 88 -20 -34 -88 -117 -83
-68 -78 86 -20 -32 -90 -121 -85
-68 -78 83 -20 -34 -93 -122 -88
-68 -78 82 -20 -37 -94 -122 -90
-68 -78 83 -20 -39 -93 -122 -93
-65 -78 84 -20 -39 -91 -122 -96
-59 -78 83 -20 -39 -88 -122 -98
-52 -78 81 -20 -39 -85 -122 -98
-49 -78 78 -20 -39 -83 -122 -98
-55 -78 77 -20 -39 -83 -120 -98
-68 -78 78 -20 -39 -83 -117 -98
-82 -78 81 -20 -41 -83 -114 -98
-88 -78 83 -20 -44 -83 -112 -98
-85 -78 83 -20 -45 -85 -112 -98
-78 -78 83 -20 -44 -88 -112 -98
-74 -78 83 -20 -42 -89 -112 -98
-73 -78 83 -20 -39 -88 -112 -98
-73 -78 81 -20 -36 -85 -113 -98
-73 -78 78 -20 -34 -83 -117 -98
-72 -78 75 -20 -33 -84 -121 -98
-73 -78 73 -20 -34 -88 -122 -98
-75 -78 73 -20 -37 -91 -122 -98
-78 -78 73 -20 -39 -93 -122 -98
-79 -78 73 -20 -40 -93 -124 -98
-78 -78 73 -20 -39 -93 -127 -98
-75 -76 73 -20 -38 -93 -128 -98
-73 -73 73 -20 -39 -93 -127 -98
-72 -71 71 -20 -41 -93 -127 -98
-73 -73 68 -20 -44 -93 -127 -98
-74 -79 66 -21 -45 -94 -127 -97
-73 -83 68 -24 -44 -98 -127 -98
-70 -82 71 -27 -41 -104 -127 -101
-68 -78 73 -29 -39 -107 -127 -102
-67 -77 71 -27 -38 -106 -124 -99
-68 -78 68 -24 -39 -102 -117 -93
-68 -79 67 -21 -39 -99 -110 -88
-68 -78 68 -20 -39 -98 -107 -88
-68 -78 68 -20 -39 -98 -108 -92
-68 -78 68 -20 -39 -98 -112 -98
-68 -78 68 -20 -39 -98 -115 -104
-68 -78 68 -20 -39 -98 -117 -107
-68 -78 68 -20 -39 -98 -117 -103
-68 -78 68 -20 -39 -98 -117 -93
-68 -78 68 -20 -39 -98 -117 -83
-68 -78 68 -20 -39 -98 -117 -78
-68 -78 68 -20 -41 -99 -119 -81
-68 -78 68 -20 -44 -102 -122 -88
-68 -78 68 -20 -47 -105 -125 -95
-68 -78 68 -20 -49 -107 -127 -98
-68 -78 68 -20 -49 -107 -127 -98
-68 -78 68 -20 -49 -107 -127 -98
-68 -78 68 -20 -49 -107 -127 -98
-68 -78 68 -20 -49 -107 -127 -98
-68 -78 68 -20 -49 -107 -127 -98
-68 -78 68 -20 -49 -107 -127 -98
-68 -78 68 -20 -49 -107 -127 -98
-68 -78 68 -20 -49 -107 -127 -98
-68 -78 70 -20 -49 -107 -127 -98
-68 -78 73 -20 -49 -107 -127 -98
-68 -78 76 -20 -49 -107 -127 -98
-68 -78 78 -20 -49 -107 -127 -98
-68 -78 80 -18 -49 -107 -127 -98
-68 -78 83 -15 -49 -107 -127 -98
-68 -78 86 -12 -49 -107 -127 -98
-68 -78 88 -10 -49 -107 -127 -98
-68 -76 88 -9 -49 -107 -127 -98
-68 -73 88 -10 -49 -107 -127 -98
-68 -70 88 -11 -50 -107 -127 -98
-68 -68 88 -10 -49 -107 -127 -98
-68 -66 88 -6 -45 -105 -123 -96
-68 -63 88 -0 -39 -102 -117 -93
-68 -61 88 6 -33 -99 -110 -90
-68 -59 88 10 -29 -98 -107 -88
-68 -55 88 11 -27 -98 -107 -88
-68 -49 88 10 -24 -98 -107 -88
-68 -42 87 9 -21 -98 -106 -87
-68 -39 88 10 -20 -98 -107 -88
-68 -39 91 11 -20 -98 -108 -89
-68 -39 93 10 -20 -98 -107 -88
-68 -38 95 9 -19 -97 -105 -86
-68 -39 98 10 -20 -98 -107 -88
-67 -43 102 14 -21 -101 -115 -94
-63 -44 102 15 -20 -102 -122 -98
-58 -40 98 13 -15 -98 -120 -94
-54 -34 93 10 -10 -93 -112 -88
-52 -31 89 10 -7 -89 -105 -84
-49 -29 83 10 -5 -88 -102 -78
-44 -23 73 8 -0 -86 -99 -68
-39 -15 63 5 5 -83 -93 -59
-36 -9 58 3 6 -80 -87 -57
-34 -5 54 -0 5 -78 -83 -59
-32 1 47 -5 4 -75 -80 -58
-29 10 39 -10 5 -73 -78 -54
-26 15 33 -13 4 -72 -77 -51
-24 10 29 -15 0 -73 -78 -49
-23 -2 23 -19 -4 -75 -79 -48
-24 -10 20 -24 -5 -78 -78 -49
-23 -10 23 -26 -6 -80 -75 -54
-20 -10 29 -24 -10 -78 -73 -59
-15 -15 32 -23 -18 -74 -74 -60
-15 -24 29 -24 -24 -73 -78 -59
-21 -27 24 -26 -25 -77 -81 -60
-29 -24 24 -24 -24 -83 -83 -63
-32 -21 28 -19 -24 -85 -84 -67
-29 -24 34 -15 -24 -83 -83 -68
-26 -32 41 -13 -23 -83 -80 -64
-29 -39 49 -10 -20 -88 -78 -54
-36 -44 59 -4 -18 -96 -79 -44
-44 -49 68 5 -20 -102 -83 -44
-49 -55 72 11 -27 -106 -91 -58
-54 -63 73 10 -39 -112 -102 -78
-59 -69 73 6 -52 -121 -114 -91
-63 -73 73 5 -59 -127 -122 -93
-66 -77 73 6 -60 -127 -125 -92
-68 -83 73 5 -59 -127 -127 -93
-72 -91 72 -2 -62 -133 -131 -98
-78 -98 73 -10 -68 -142 -137 -102
-82 -100 75 -15 -74 -146 -140 -105
-83 -98 78 -15 -78 -146 -142 -107
-83 -97 81 -15 -81 -148 -144 -108
-83 -98 83 -15 -83 -151 -146 -107
-83 -100 83 -15 -83 -152 -147 -105
-83 -102 83 -15 -83 -151 -146 -107
-82 -102 83 -15 -83 -151 -146 -112
-83 -102 83 -15 -83 -151 -146 -117
-86 -102 83 -15 -82 -151 -146 -118
-88 -102 83 -15 -83 -151 -146 -117
-89 -102 83 -15 -85 -153 -146 -117
-88 -102 83 -15 -88 -156 -146 -117
-88 -102 83 -15 -89 -157 -148 -117
-88 -102 83 -15 -88 -156 -151 -117
-88 -102 83 -15 -88 -156 -154 -120
-88 -102 83 -15 -88 -156 -156 -122
-88 -102 83 -15 -88 -156 -156 -119
-88 -102 83 -15 -88 -156 -156 -112
-88 -102 83 -15 -88 -158 -156 -104
-88 -102 83 -15 -88 -161 -156 -102
-88 -102 83 -15 -88 -164 -155 -108
-88 -102 83 -15 -88 -166 -156 -122
-88 -102 83 -15 -88 -166 -158 -137
-88 -102 83 -15 -88 -166 -161 -146
-90 -102 83 -13 -87 -166 -162 -142
-93 -102 83 -10 -83 -166 -161 -127
-96 -101 83 -7 -79 -166 -160 -110
-98 -102 83 -5 -78 -166 -161 -102
-99 -105 83 -5 -79 -166 -162 -104
-98 -107 83 -5 -78 -166 -161 -112
-97 -107 83 -5 -75 -164 -159 -118
-98 -107 83 -5 -73 -161 -156 -122
-100 -107 83 -5 -74 -160 -155 -125
-98 -107 83 -5 -73 -161 -156 -127
-94 -105 83 -4 -69 -163 -157 -128
-93 -102 83 0 -63 -161 -156 -127
-97 -98 83 6 -59 -157 -152 -126
-98 -93 83 10 -54 -151 -146 -122
-94 -87 82 10 -47 -147 -141 -115
-88 -83 78 10 -39 -142 -137 -107
-86 -82 71 10 -36 -136 -133 -102
-83 -78 63 10 -34 -127 -127 -102
-77 -71 56 9 -31 -120 -122 -103
-68 -63 49 10 -20 -112 -117 -98
-63 -58 42 15 -6 -106 -113 -89
-59 -54 34 20 10 -93 -102 -78
-49 -47 25 26 23 -76 -88 -70
-29 -34 10 34 34 -54 -73 -59
-4 -25 -7 53 49 -33 -63 -48
20 -24 -20 83 73 -10 -54 -39
42 -25 -25 117 110 17 -42 -33
63 -15 -34 142 161 54 -20 -20
81 10 -47 163 239 102 7 2
93 44 -59 185 346 156 39 29
103 86 -73 207 464 221 80 58
122 146 -107 210 556 307 142 98
160 225 -170 197 629 426 230 161
215 307 -244 185 717 581 342 249
280 380 -310 185 842 777 480 358
346 449 -371 166 956 1011 649 483
407 528 -441 92 1005 1258 843 625
454 615 -517 -49 972 1485 1036 776
484 700 -587 -240 887 1680 1212 926
498 781 -649 -459 766 1860 1377 1065
500 870 -718 -689 603 2029 1530 1187
488 966 -795 -913 381 2143 1650 1289
461 1054 -862 -1113 104 2154 1707 1359
420 1104 -888 -1275 -215 2046 1689 1382
372 1088 -867 -1382 -548 1829 1596 1345
322 1001 -815 -1421 -859 1519 1431 1250
273 860 -756 -1387 -1118 1153 1209 1111
224 703 -698 -1304 -1314 786 966 947
177 558 -640 -1205 -1460 456 729 774
137 434 -581 -1114 -1563 161 503 605
108 333 -528 -1025 -1603 -96 299 458
88 254 -483 -927 -1553 -283 142 342
74 196 -442 -823 -1434 -384 37 251
63 151 -400 -732 -1309 -434 -44 171
54 113 -360 -668 -1218 -473 -120 99
44 88 -322 -620 -1138 -493 -171 49
29 81 -286 -569 -1028 -470 -179 26
5 88 -249 -508 -888 -415 -161 15
-24 92 -208 -447 -758 -366 -155 -3
-49 83 -166 -395 -654 -332 -166 -29
-63 61 -126 -349 -567 -307 -176 -54
-68 34 -88 -298 -478 -278 -171 -73
-71 7 -48 -238 -390 -252 -161 -90
-73 -15 -5 -176 -307 -220 -151 -98
-71 -33 37 -116 -231 -183 -141 -94
-63 -44 68 -63 -161 -146 -122 -78
-54 -52 84 -19 -103 -122 -103 -63
-49 -54 88 10 -63 -107 -88 -54
-49 -55 90 25 -38 -95 -84 -53
-49 -54 93 29 -24 -83 -83 -54
-46 -54 97 32 -11 -78 -83 -55
-44 -54 98 34 0 -78 -83 -54
-44 -54 98 36 9 -79 -87 -53
-44 -54 98 34 15 -78 -93 -54
-43 -54 98 35 24 -75 -98 -57
-44 -54 98 39 34 -73 -98 -59
-50 -54 98 46 44 -70 -95 -61
-54 -54 98 49 49 -68 -93 -63
-51 -52 98 49 54 -65 -92 -64
-44 -49 98 49 59 -63 -93 -63
-42 -48 99 55 65 -61 -94 -61
-44 -49 102 63 68 -59 -93 -63
-45 -52 105 68 71 -56 -90 -69
-44 -54 107 68 78 -54 -88 -73
-43 -54 107 66 89 -52 -86 -70
-44 -54 107 68 98 -49 -83 -63
-45 -54 107 73 102 -44 -77 -59
-44 -54 107 78 102 -39 -73 -59
-41 -52 107 79 103 -36 -72 -60
-39 -49 107 78 107 -34 -73 -59
-39 -48 107 77 111 -32 -73 -58
-39 -49 107 78 112 -29 -73 -59
-37 -50 106 81 113 -26 -72 -60
-34 -49 107 83 117 -24 -68 -59
-34 -46 108 83 122 -23 -63 -54
-34 -44 107 83 127 -20 -59 -49
-32 -44 103 83 129 -16 -59 -47
-29 -44 98 83 132 -10 -59 -49
-26 -42 96 83 136 -5 -55 -50
-24 -39 98 83 142 0 -49 -49
-23 -39 99 83 147 3 -45 -46
-24 -39 98 83 151 5 -44 -44
-25 -38 95 82 154 7 -44 -42
-24 -34 93 83 156 10 -44 -39
-22 -31 93 85 157 16 -43 -35
-20 -29 93 88 161 24 -39 -29
-20 -29 92 89 166 31 -33 -25
-20 -29 93 88 171 34 -29 -24
-16 -29 94 87 173 34 -28 -25
-10 -29 93 88 176 34 -29 -24
-7 -27 88 91 181 37 -29 -21
-10 -24 83 93 185 44 -29 -20
-14 -21 82 93 187 53 -28 -21
-15 -20 83 93 190 59 -24 -20
-10 -21 83 93 195 61 -17 -13
-5 -20 83 93 200 63 -10 -5
-3 -16 83 93 202 69 -6 -1
-5 -10 83 93 205 78 -5 0
-7 -7 81 93 211 84 -4 2
-5 -5 78 93 220 88 -0 5
2 -3 76 92 224 92 6 9
15 -0 73 93 224 98 15 15
28 3 67 95 223 105 23 23
34 5 63 98 229 112 29 29
31 7 63 99 239 120 31 29
24 10 63 98 249 127 34 29
18 13 61 98 255 134 39 32
15 15 59 98 259 142 44 39
16 17 59 98 263 152 50 46
24 20 59 98 268 161 59 54
36 24 55 100 274 168 70 64
44 29 49 102 283 176 78 73
45 33 46 103 294 187 80 77
44 39 44 102 303 200 83 78
48 47 38 101 307 209 93 81
54 54 29 102 312 215 107 88
60 59 24 104 322 222 118 97
68 63 24 107 337 239 127 107
79 69 24 108 349 262 136 118
88 78 15 107 356 283 146 127
92 86 2 106 363 295 154 134
98 93 -5 107 376 307 166 142
111 101 -4 110 391 323 183 153
122 112 -5 112 405 342 200 166
124 123 -16 112 415 359 214 177
122 132 -29 112 425 376 229 190
127 138 -36 113 438 397 247 205
137 146 -39 112 454 420 264 220
145 158 -47 107 468 440 277 232
151 171 -59 102 478 459 293 244
159 181 -70 101 487 478 314 258
171 190 -78 102 498 498 337 273
181 201 -87 102 510 517 354 289
185 215 -98 98 522 537 371 307
188 230 -108 94 532 559 393 327
195 244 -117 93 542 581 420 346
208 257 -127 92 552 598 443 361
220 268 -137 88 561 615 459 376
228 277 -147 80 569 636 472 392
234 288 -156 73 576 659 488 405
239 301 -166 70 582 680 505 412
244 312 -176 68 586 698 522 415
248 321 -185 64 588 714 537 419
254 332 -195 59 590 727 551 429
262 343 -204 54 593 737 565 444
268 351 -210 49 595 747 576 464
269 354 -214 42 596 759 584 484
268 361 -220 34 595 771 590 498
270 375 -228 28 593 779 597 502
273 390 -234 24 590 781 605 498
274 396 -235 20 584 781 611 495
273 395 -234 15 576 781 615 498
272 396 -236 10 568 780 617 507
273 400 -239 5 561 776 615 517
272 403 -240 -0 552 768 609 522
268 400 -239 -5 542 756 600 517
261 394 -237 -8 529 742 590 503
254 390 -234 -10 512 727 581 488
247 385 -228 -11 491 709 570 476
239 376 -220 -10 468 688 551 464
229 361 -213 -7 444 663 526 449
220 346 -205 -5 420 634 498 429
211 334 -194 -5 395 601 470 409
200 322 -181 -5 371 566 439 390
186 307 -167 -4 347 530 406 370
171 288 -151 -0 322 493 376 346
157 269 -133 4 297 456 350 319
142 249 -117 5 273 420 322 293
125 227 -103 3 246 381 287 267
112 205 -88 -0 215 337 249 239
104 186 -69 -1 184 292 216 209
93 171 -49 0 161 254 190 185
74 156 -32 3 147 224 163 167
54 137 -20 5 132 195 132 146
41 115 -10 5 109 160 99 120
34 98 -0 5 83 127 73 98
24 89 10 5 64 101 53 85
10 83 20 5 54 78 34 73
-2 72 31 5 43 52 12 53
-10 54 39 5 24 24 -10 29
-15 36 46 5 3 1 -28 11
-20 24 54 5 -10 -15 -44 -0
-24 16 64 5 -16 -31 -61 -10
-29 10 73 5 -24 -49 -78 -20
-34 2 78 7 -39 -64 -90 -28
-39 -5 83 10 -54 -73 -98 -34
-42 -11 90 13 -62 -79 -106 -41
-44 -15 98 15 -68 -88 -117 -49
-48 -20 102 15 -78 -101 -127 -55
-54 -24 102 15 -88 -112 -132 -59
-59 -29 103 15 -92 -119 -134 -65
-59 -34 107 15 -93 -122 -137 -73
-58 -40 112 15 -97 -127 -144 -80
-59 -44 117 15 -102 -132 -151 -83
-64 -47 120 15 -105 -136 -155 -84
-68 -49 122 15 -107 -137 -156 -83
-69 -52 123 15 -110 -139 -157 -82
-68 -54 122 15 -112 -142 -161 -83
-70 -54 121 15 -112 -145 -165 -85
-73 -54 122 15 -112 -146 -166 -88
-75 -58 124 15 -114 -145 -166 -89
-73 -63 127 15 -117 -146 -166 -88
-70 -67 128 16 -119 -149 -168 -87
-68 -68 127 15 -122 -151 -171 -88
-68 -68 124 13 -129 -152 -172 -91
-68 -68 122 10 -137 -151 -171 -93
-68 -67 121 9 -142 -151 -171 -93
-68 -68 122 10 -142 -151 -171 -93
-68 -70 125 13 -139 -151 -171 -93
-68 -73 127 15 -137 -151 -171 -93
-68 -74 127 16 -137 -151 -171 -93
-68 -73 127 15 -137 -151 -171 -93
-68 -72 127 12 -137 -150 -171 -93
-68 -73 127 10 -137 -151 -171 -93
-69 -73 127 9 -138 -152 -171 -91
-68 -73 127 10 -137 -151 -171 -88
-65 -72 127 12 -134 -146 -171 -87
-63 -73 127 15 -132 -142 -171 -88
-62 -74 127 19 -132 -142 -169 -89
-63 -73 127 24 -132 -142 -166 -88
-63 -70 127 27 -130 -140 -163 -85
-63 -68 127 29 -127 -137 -161 -83
-63 -67 127 30 -127 -137 -161 -83
-63 -68 127 29 -127 -137 -161 -83
-63 -68 127 28 -125 -133 -160 -81
-63 -68 127 29 -122 -127 -156 -78
-61 -68 127 32 -120 -122 -150 -77
-59 -68 127 34 -122 -122 -146 -78
-58 -68 127 35 -125 -123 -145 -78
-59 -68 127 34 -127 -122 -146 -78
-60 -68 127 34 -127 -119 -147 -78
-59 -68 127 34 -127 -117 -146 -78
-56 -67 127 34 -126 -116 -144 -78
-54 -68 127 34 -127 -117 -142 -78
-54 -70 127 34 -128 -118 -142 -78
-54 -68 127 34 -127 -117 -142 -78
-54 -62 127 33 -124 -114 -142 -76
-54 -59 127 34 -122 -112 -142 -73
-56 -62 127 36 -121 -112 -142 -71
-59 -68 127 39 -122 -112 -142 -73
-60 -70 125 40 -122 -112 -142 -79
-59 -68 122 39 -122 -112 -142 -88
-56 -67 118 38 -122 -112 -142 -96
-54 -68 117 39 -122 -112 -142 -98
-54 -69 119 41 -122 -110 -142 -93
-54 -68 122 44 -122 -107 -142 -83
-54 -65 123 47 -122 -106 -142 -75
-54 -63 122 49 -122 -107 -142 -73
-54 -62 121 49 -122 -107 -142 -75
-54 -63 122 49 -122 -107 -142 -78
-54 -66 125 49 -122 -107 -142 -79
-54 -68 127 49 -122 -107 -142 -78
-54 -68 127 49 -122 -107 -142 -78
-54 -68 127 49 -122 -107 -142 -78
-54 -68 127 49 -122 -107 -144 -80
-54 -68 127 49 -122 -107 -146 -83
-54 -68 125 49 -122 -106 -147 -86
-54 -68 122 49 -122 -107 -146 -83
-54 -68 121 49 -121 -109 -145 -76
-54 -68 122 49 -122 -112 -146 -73
-54 -68 123 49 -123 -113 -149 -77
-54 -68 122 49 -122 -112 -151 -83
-55 -68 119 49 -120 -110 -151 -85
-54 -68 117 49 -122 -107 -151 -83
-53 -67 117 51 -127 -104 -151 -79
-54 -68 117 54 -132 -102 -151 -73
-58 -70 117 57 -133 -104 -151 -66
-63 -73 117 59 -132 -107 -151 -63
-65 -74 117 60 -132 -108 -151 -68
-63 -73 117 59 -132 -107 -151 -78
-61 -72 117 56 -129 -106 -151 -85
-59 -73 117 54 -127 -107 -151 -88
-58 -74 118 53 -127 -110 -151 -89
-59 -73 117 54 -127 -112 -151 -88
-61 -72 116 54 -126 -112 -151 -84
-63 -73 117 54 -127 -112 -151 -78
-64 -76 119 54 -132 -114 -150 -75
-63 -78 117 54 -137 -117 -151 -78
-63 -79 110 54 -138 -118 -153 -84
-63 -78 107 54 -137 -117 -156 -88
-63 -78 111 54 -136 -117 -157 -86
-63 -78 117 54 -137 -117 -156 -78
-63 -78 119 55 -137 -117 -156 -70
-63 -78 117 54 -137 -117 -156 -68
-63 -78 116 51 -137 -119 -156 -73
-63 -78 117 49 -137 -122 -156 -83
-62 -78 115 48 -137 -124 -156 -91
-63 -78 112 49 -137 -122 -156 -93
-65 -78 111 49 -137 -117 -154 -89
-68 -78 112 49 -137 -112 -151 -83
-71 -77 113 49 -137 -108 -148 -79
-73 -78 112 49 -137 -107 -146 -78
-75 -80 111 49 -137 -107 -146 -78
-73 -83 112 49 -137 -107 -146 -78
-68 -84 113 49 -137 -107 -146 -78
-63 -83 112 49 -137 -107 -146 -78
-61 -83 109 47 -137 -107 -146 -78
-63 -83 107 44 -137 -107 -146 -78
-64 -83 106 43 -137 -107 -146 -80
-63 -83 107 44 -137 -107 -146 -83
-62 -83 107 45 -135 -107 -146 -87
-63 -83 107 44 -132 -107 -146 -88
-66 -83 107 43 -131 -107 -146 -86
-68 -83 107 44 -132 -107 -146 -83
-68 -83 105 47 -133 -107 -146 -82
-68 -83 102 49 -132 -107 -146 -83
-70 -82 99 50 -129 -107 -146 -84
-73 -83 98 49 -127 -107 -146 -83
-74 -86 98 49 -127 -107 -145 -81
-73 -88 98 49 -127 -107 -146 -83
-70 -88 96 49 -127 -106 -148 -89
-68 -88 93 49 -127 -107 -151 -93
-67 -88 92 49 -129 -109 -152 -93
-68 -88 93 49 -132 -112 -151 -93
-71 -86 94 50 -133 -113 -148 -93
-73 -83 93 49 -132 -112 -146 -88
-72 -82 91 47 -131 -112 -145 -80
-68 -83 88 44 -132 -112 -146 -78
-64 -84 85 43 -134 -112 -146 -85
-63 -83 83 44 -137 -112 -146 -93
-63 -82 83 47 -138 -112 -146 -92
-63 -83 83 49 -137 -112 -146 -88
-63 -84 83 50 -135 -112 -146 -88
-63 -83 83 49 -132 -112 -146 -93
-63 -81 83 48 -131 -112 -144 -95
-63 -83 83 49 -132 -112 -142 -93
-63 -90 81 50 -135 -112 -141 -92
-63 -93 78 49 -137 -112 -142 -93
-63 -87 77 48 -138 -112 -144 -94
-63 -78 78 49 -137 -112 -146 -93
-61 -73 78 51 -137 -112 -146 -93
-59 -73 78 49 -137 -112 -146 -93
-58 -74 78 43 -136 -112 -146 -92
-59 -73 78 39 -132 -112 -146 -88
-60 -72 78 43 -127 -112 -145 -84
-59 -73 78 49 -127 -112 -142 -83
-57 -75 76 51 -132 -112 -138 -83
-59 -78 73 49 -137 -112 -137 -83
-65 -82 70 48 -138 -111 -137 -82
-68 -83 68 49 -137 -112 -137 -83
-65 -81 67 50 -136 -114 -135 -89
-59 -78 68 49 -137 -117 -137 -98
-57 -77 68 48 -137 -118 -142 -106
-59 -78 68 49 -137 -117 -146 -107
-60 -78 68 49 -139 -115 -143 -102
-59 -78 68 49 -142 -112 -137 -93
-58 -78 69 49 -143 -108 -134 -86
-59 -78 68 49 -142 -107 -137 -83
-61 -78 65 49 -141 -109 -142 -83
-63 -78 63 49 -142 -112 -146 -83
-66 -78 62 49 -144 -113 -149 -82
-68 -78 63 49 -146 -112 -151 -83
-68 -78 62 51 -146 -112 -151 -85
-68 -78 59 54 -146 -112 -151 -88
-68 -78 54 57 -146 -112 -151 -89
-68 -78 49 59 -146 -112 -151 -88
-68 -78 47 59 -146 -112 -151 -88
-68 -78 49 59 -146 -112 -151 -88
-68 -78 52 59 -148 -112 -151 -88
-68 -78 54 59 -151 -112 -151 -88
-67 -78 54 59 -152 -114 -151 -88
-68 -78 54 59 -151 -117 -151 -88
-71 -78 54 59 -148 -119 -151 -88
-73 -78 54 59 -146 -117 -151 -88
-72 -78 54 59 -144 -112 -151 -88
-68 -78 54 59 -142 -107 -151 -88
-64 -78 54 59 -141 -105 -151 -88
-63 -78 54 59 -142 -107 -151 -88
-65 -78 52 59 -144 -110 -150 -88
-68 -78 49 59 -146 -112 -151 -88
-69 -78 46 59 -147 -112 -153 -88
-68 -78 44 59 -146 -112 -156 -88
-65 -76 44 59 -145 -112 -157 -88
-63 -73 44 59 -146 -112 -156 -88
-62 -71 42 59 -148 -112 -156 -89
-63 -73 39 59 -151 -112 -156 -88
-66 -79 36 57 -152 -111 -156 -87
-68 -83 34 54 -151 -112 -156 -88
-69 -82 34 50 -148 -114 -156 -91
-68 -78 34 49 -146 -117 -156 -93
-68 -77 33 50 -144 -118 -156 -89
-68 -78 34 54 -142 -117 -156 -83
-68 -79 36 57 -139 -117 -156 -78
-68 -78 39 59 -137 -117 -156 -78
-68 -78 40 59 -136 -117 -156 -80
-68 -78 39 59 -137 -117 -156 -83
-68 -78 39 59 -137 -117 -156 -86
-68 -78 39 59 -137 -117 -156 -88
-68 -78 39 59 -137 -117 -156 -89
-68 -78 39 59 -137 -117 -156 -88
-68 -78 39 59 -137 -117 -156 -87
-68 -78 39 59 -137 -117 -156 -88
-68 -78 39 59 -137 -117 -156 -90
-68 -78 39 59 -137 -117 -156 -93
-68 -78 39 59 -137 -117 -156 -96
-68 -78 39 59 -137 -117 -156 -98
-68 -78 39 59 -137 -117 -156 -98
-68 -78 39 59 -137 -117 -156 -98
-68 -78 39 59 -137 -117 -156 -98
-68 -78 39 59 -137 -117 -156 -98
-68 -78 39 59 -137 -117 -156 -98
-68 -78 39 59 -137 -117 -156 -98
-68 -78 39 59 -137 -117 -156 -98
-68 -78 39 59 -137 -117 -156 -98
-68 -78 39 59 -137 -117 -156 -98
-68 -78 39 59 -137 -117 -156 -98
-68 -78 39 59 -137 -117 -156 -98
-68 -78 39 59 -137 -117 -156 -98
-68 -78 39 59 -137 -117 -156 -98
-68 -78 39 59 -137 -117 -156 -98
-68 -78 39 59 -137 -117 -156 -98
-68 -78 39 59 -137 -117 -156 -98
-68 -78 41 59 -135 -117 -156 -98
-68 -78 44 59 -132 -117 -156 -98
-68 -78 47 59 -129 -117 -156 -98
-68 -78 49 59 -127 -117 -156 -98
-68 -78 49 59 -127 -117 -156 -98
-68 -78 49 59 -127 -117 -156 -98
-68 -78 49 59 -127 -117 -156 -98
-68 -78 49 59 -127 -117 -156 -98
-68 -78 49 57 -127 -119 -156 -98
-68 -78 49 54 -127 -122 -156 -98
-68 -78 49 51 -127 -125 -156 -98
-68 -78 49 49 -127 -127 -156 -98
-68 -80 49 49 -127 -127 -156 -98
-68 -83 49 49 -127 -127 -156 -98
-68 -86 49 49 -127 -127 -156 -98
-68 -88 49 49 -127 -127 -156 -98
-68 -88 49 49 -127 -127 -156 -98
-68 -88 49 49 -127 -127 -156 -98
-68 -88 49 49 -127 -127 -156 -98
-68 -88 49 49 -127 -127 -156 -98
-68 -88 51 49 -127 -127 -156 -98
-68 -88 54 49 -127 -127 -156 -98
-68 -89 57 48 -128 -127 -156 -98
-68 -88 59 49 -127 -127 -156 -98
-68 -82 61 53 -123 -125 -154 -98
-68 -73 63 59 -117 -122 -151 -98
-68 -64 66 65 -111 -119 -148 -98
-68 -59 68 68 -107 -117 -146 -98
-68 -58 69 69 -106 -116 -146 -101
-68 -59 68 68 -107 -117 -146 -107
-68 -60 67 67 -108 -117 -146 -114
-68 -59 68 68 -107 -117 -146 -117
-66 -57 70 70 -102 -115 -145 -111
-63 -54 73 73 -93 -112 -142 -98
-60 -51 76 76 -84 -109 -139 -85
-59 -49 78 78 -78 -107 -137 -78
-59 -47 80 78 -77 -107 -137 -77
-59 -44 83 78 -78 -107 -137 -78
-59 -41 86 78 -78 -107 -137 -79
-59 -39 88 78 -78 -107 -137 -78
-59 -39 89 78 -78 -107 -136 -76
-59 -39 88 78 -78 -107 -132 -73
-59 -39 87 78 -78 -107 -128 -70
-59 -39 88 78 -78 -107 -127 -68
-57 -40 89 78 -76 -105 -128 -68
-54 -39 88 78 -73 -102 -127 -68
-50 -36 83 78 -69 -99 -123 -67
-44 -34 78 78 -68 -98 -122 -68
-38 -34 75 79 -68 -97 -124 -69
-34 -34 73 78 -68 -93 -122 -68
-32 -29 66 74 -64 -85 -112 -62
-29 -20 54 68 -59 -78 -102 -54
-24 -11 42 63 -55 -74 -100 -49
-20 -5 34 59 -54 -73 -102 -49
-19 -3 30 55 -54 -73 -101 -49
-20 -5 24 49 -54 -73 -98 -49
-21 -6 16 43 -56 -75 -98 -50
-20 -5 10 39 -59 -78 -102 -54
-17 -4 9 38 -63 -81 -105 -58
-15 -10 10 39 -68 -83 -107 -59
-14 -21 12 39 -72 -85 -107 -58
-15 -29 15 39 -73 -88 -107 -59
-16 -29 22 41 -74 -91 -106 -64
-15 -29 29 44 -78 -93 -107 -68
-15 -35 31 46 -86 -92 -111 -68
-20 -44 29 44 -93 -93 -117 -68
-30 -47 28 42 -95 -97 -121 -70
-39 -44 34 44 -93 -102 -122 -73
-42 -41 45 49 -90 -104 -122 -74
-39 -44 54 54 -88 -102 -122 -73
-36 -52 58 55 -87 -101 -123 -72
-39 -59 59 54 -88 -107 -127 -73
-47 -64 63 56 -93 -116 -135 -76
-54 -68 68 59 -98 -122 -142 -83
-59 -75 72 59 -102 -124 -147 -93
-63 -83 73 54 -107 -127 -151 -102
-69 -90 73 47 -113 -133 -156 -105
-73 -93 73 44 -117 -137 -161 -102
-74 -95 73 45 -117 -136 -163 -100
-73 -98 73 44 -117 -137 -166 -102
-74 -103 73 37 -121 -143 -171 -107
-78 -107 73 29 -127 -151 -176 -112
-82 -108 73 26 -131 -153 -177 -113
-83 -107 73 29 -132 -151 -176 -112
-83 -106 73 33 -132 -152 -175 -110
-83 -107 73 34 -132 -156 -176 -107
-83 -110 73 34 -132 -160 -177 -105
-83 -112 73 34 -132 -161 -176 -107
-82 -112 73 34 -130 -161 -174 -112
-83 -112 73 34 -127 -161 -171 -117
-85 -112 73 34 -123 -161 -168 -118
-88 -112 73 34 -122 -161 -166 -117
-89 -112 73 34 -124 -162 -165 -117
-88 -112 73 34 -127 -161 -166 -117
-88 -112 73 34 -128 -158 -168 -117
-88 -112 73 34 -127 -156 -171 -117
-88 -112 73 34 -126 -155 -174 -119
-88 -112 73 34 -127 -156 -176 -122
-88 -112 73 34 -127 -156 -176 -123
-88 -112 73 34 -127 -156 -176 -122
-88 -112 73 34 -127 -158 -176 -122
-88 -112 73 34 -127 -161 -176 -122
-88 -112 73 34 -128 -164 -175 -122
-88 -112 73 34 -127 -166 -176 -122
-88 -112 75 34 -125 -166 -178 -124
-88 -112 78 34 -122 -166 -181 -127
-90 -113 81 34 -119 -166 -182 -129
-93 -112 83 34 -117 -166 -181 -127
-96 -109 83 34 -116 -168 -180 -124
-98 -107 83 34 -117 -171 -181 -122
-99 -106 83 34 -118 -175 -182 -122
-98 -107 83 34 -117 -176 -181 -122
-97 -107 83 34 -114 -174 -178 -120
-98 -107 83 34 -112 -171 -176 -117
-100 -107 83 34 -113 -170 -175 -116
-98 -107 83 34 -112 -171 -176 -117
-94 -105 83 35 -107 -171 -175 -117
-93 -102 83 39 -98 -166 -171 -117
-95 -99 82 45 -91 -159 -164 -116
-93 -93 78 49 -83 -151 -156 -112
-86 -87 72 50 -75 -146 -150 -106
-78 -83 63 49 -68 -142 -146 -98
-76 -82 54 49 -65 -137 -143 -94
-73 -78 44 49 -63 -127 -137 -93
-65 -71 35 51 -57 -117 -130 -93
-54 -63 24 54 -44 -107 -122 -88
-46 -59 14 61 -28 -98 -114 -79
-39 -54 5 68 -10 -83 -102 -68
-27 -46 -5 78 9 -64 -88 -59
-5 -34 -20 93 29 -39 -73 -49
22 -26 -36 121 53 -16 -61 -39
49 -24 -49 156 83 10 -44 -29
74 -19 -58 189 126 42 -19 -17
98 0 -73 210 185 88 15 5
120 33 -93 227 271 146 52 37
137 73 -112 244 376 215 93 73
155 120 -135 258 481 299 147 112
185 185 -181 254 561 405 229 166
236 269 -253 233 627 542 341 248
303 356 -332 205 703 708 473 356
373 433 -398 168 792 908 624 480
434 508 -459 93 849 1138 795 610
483 594 -532 -39 839 1371 979 744
517 683 -615 -220 761 1572 1153 878
536 765 -690 -428 636 1733 1305 1010
542 839 -752 -654 464 1875 1445 1133
540 917 -812 -890 250 1997 1573 1241
527 992 -874 -1104 10 2051 1660 1323
501 1043 -923 -1261 -234 1991 1675 1361
459 1050 -937 -1353 -488 1821 1611 1343
407 999 -910 -1393 -760 1571 1478 1265
351 893 -854 -1392 -1026 1260 1284 1138
294 749 -789 -1347 -1236 913 1046 980
239 595 -722 -1265 -1367 576 800 810
188 457 -659 -1165 -1437 284 574 645
146 346 -600 -1070 -1475 34 371 493
115 264 -551 -981 -1476 -176 195 366
93 205 -508 -888 -1416 -322 63 268
76 161 -467 -792 -1305 -395 -23 190
63 122 -425 -703 -1192 -425 -88 117
53 85 -384 -636 -1106 -445 -148 52
44 59 -346 -581 -1021 -444 -181 10
29 52 -308 -524 -900 -406 -173 -3
5 59 -268 -459 -756 -346 -146 -5
-25 63 -226 -396 -635 -304 -140 -17
-49 54 -185 -342 -551 -283 -156 -39
-61 32 -145 -292 -484 -270 -170 -58
-63 5 -107 -239 -410 -249 -166 -68
-63 -22 -67 -179 -332 -226 -156 -75
-63 -44 -24 -117 -259 -195 -146 -78
-61 -60 17 -58 -192 -161 -138 -76
-54 -68 44 -10 -132 -127 -122 -68
-45 -70 55 26 -82 -108 -105 -62
-39 -68 54 44 -49 -98 -93 -59
-39 -65 53 49 -30 -91 -91 -61
-39 -63 54 49 -20 -83 -93 -63
-37 -63 57 54 -10 -78 -94 -64
-34 -63 59 63 0 -78 -93 -63
-34 -63 61 71 9 -79 -95 -62
-34 -63 63 73 15 -78 -98 -63
-34 -65 66 74 22 -76 -100 -66
-39 -68 68 78 29 -73 -98 -68
-48 -72 69 85 36 -70 -95 -69
-54 -73 68 88 39 -68 -93 -68
-51 -71 68 88 43 -67 -92 -66
-44 -68 68 88 49 -68 -93 -63
-41 -67 68 92 55 -69 -94 -61
-44 -68 68 98 59 -68 -93 -63
-46 -69 68 100 62 -65 -90 -69
-44 -68 68 98 68 -63 -88 -73
-43 -65 68 96 78 -61 -86 -70
-44 -63 68 98 88 -59 -83 -63
-45 -63 68 103 92 -54 -77 -59
-44 -63 68 107 93 -49 -73 -59
-41 -62 68 108 94 -46 -72 -60
-39 -59 68 107 98 -44 -73 -59
-39 -58 68 106 101 -42 -73 -58
-39 -59 68 107 102 -39 -73 -59
-37 -60 67 110 103 -36 -72 -60
-34 -59 68 112 107 -34 -68 -59
-34 -56 69 112 112 -32 -63 -56
-34 -54 68 112 117 -29 -59 -54
-32 -54 64 112 119 -25 -59 -56
-29 -54 59 112 122 -20 -59 -59
-26 -52 57 112 126 -15 -55 -60
-24 -49 59 112 132 -10 -49 -59
-23 -48 60 112 137 -7 -45 -56
-24 -49 59 112 142 -5 -44 -54
-25 -48 56 111 147 -4 -46 -52
-24 -44 54 112 151 0 -49 -49
-22 -41 54 114 155 7 -51 -45
-20 -39 54 117 161 15 -49 -39
-20 -39 53 118 167 21 -44 -35
-20 -39 54 117 171 24 -39 -34
-16 -39 56 116 173 24 -36 -35
-10 -39 54 117 176 24 -34 -34
-8 -37 47 120 183 25 -31 -31
-10 -34 39 122 190 29 -29 -29
-13 -30 35 122 195 35 -28 -30
-10 -29 34 122 200 39 -24 -29
-2 -30 34 122 205 41 -17 -23
5 -29 34 122 210 44 -10 -15
7 -25 35 122 212 51 -6 -11
5 -20 34 122 215 59 -5 -10
4 -17 32 122 221 65 -2 -8
5 -15 29 122 229 68 5 -5
9 -13 27 121 234 72 14 -1
15 -10 24 122 234 78 24 5
21 -7 19 125 234 85 33 14
24 -5 15 127 239 93 39 20
24 -3 15 127 249 100 41 21
24 0 15 127 259 107 44 20
24 3 13 127 266 113 49 23
24 5 10 127 273 122 54 29
26 7 9 126 280 132 59 36
34 10 5 127 288 142 68 44
48 15 -2 129 295 148 79 54
59 20 -10 132 303 156 88 63
62 24 -13 133 312 167 92 67
63 29 -15 132 322 181 98 68
67 36 -20 133 329 190 111 71
73 44 -29 137 337 195 127 78
77 49 -34 142 348 201 138 87
83 54 -34 146 361 215 146 98
91 60 -35 147 370 235 156 108
98 68 -44 146 376 254 166 117
101 76 -57 145 382 266 174 124
107 83 -63 146 395 278 185 132
120 93 -61 149 411 294 202 143
132 107 -63 151 425 312 220 156
136 121 -76 151 434 329 235 168
137 132 -93 151 444 346 249 181
144 138 -101 152 459 367 266 195
156 146 -102 151 478 390 283 210
165 158 -106 147 495 411 297 222
171 171 -117 142 508 429 312 234
179 181 -128 141 517 446 331 246
190 190 -137 142 527 464 351 259
200 201 -146 141 539 482 366 272
205 215 -156 137 551 503 381 288
208 230 -166 133 561 528 403 308
215 244 -176 132 571 551 429 327
227 257 -185 131 581 569 452 342
239 268 -195 127 590 586 468 356
248 277 -205 119 597 605 482 371
254 288 -215 112 605 625 498 386
260 300 -224 109 613 643 516 396
264 312 -234 107 620 659 532 405
267 323 -246 103 624 674 547 416
273 337 -259 98 625 688 561 429
281 352 -271 94 625 699 575 441
288 361 -278 88 625 708 586 454
289 365 -282 79 624 718 594 467
288 371 -288 68 625 727 600 478
289 384 -297 60 626 731 607 481
293 395 -303 54 625 732 615 478
294 396 -304 49 619 732 621 473
293 390 -303 44 610 732 625 473
292 387 -304 39 600 731 626 479
293 390 -307 34 590 727 625 488
293 392 -308 27 579 719 620 493
288 390 -307 20 566 708 610 488
280 385 -304 14 552 694 599 474
273 381 -298 10 537 678 590 459
267 374 -288 9 519 660 579 448
259 361 -278 10 498 639 561 439
249 343 -269 13 476 615 535 425
239 327 -259 15 454 586 508 405
231 315 -245 15 432 553 482 382
220 303 -229 15 410 517 454 361
205 287 -215 17 388 481 424 341
190 268 -200 20 366 444 395 317
176 248 -183 21 344 407 370 290
161 229 -166 20 322 371 342 264
145 208 -152 17 297 333 306 238
132 185 -137 15 268 293 268 210
123 165 -119 15 240 253 237 182
112 151 -98 15 220 220 215 161
93 137 -80 15 206 194 191 146
73 117 -68 15 190 166 161 127
59 93 -58 15 167 131 128 101
49 73 -49 15 142 98 102 78
36 62 -38 15 123 73 84 67
20 54 -24 15 112 54 68 59
8 42 -10 15 102 33 49 42
-0 24 -0 15 88 10 29 20
-7 7 7 15 71 -9 11 2
-15 -5 15 15 59 -24 -5 -10
-23 -13 25 15 52 -41 -22 -23
-29 -20 34 15 44 -59 -39 -39
-35 -28 39 15 31 -75 -52 -54
-39 -34 44 15 20 -83 -59 -63
-42 -39 51 15 17 -87 -66 -68
-44 -44 59 15 15 -93 -73 -68
-48 -49 63 15 8 -103 -80 -67
-54 -54 63 15 0 -112 -83 -68
-58 -58 64 13 -4 -118 -85 -74
-59 -63 68 10 -5 -122 -88 -83
-58 -69 73 7 -9 -127 -94 -90
-59 -73 78 5 -15 -132 -98 -93
-64 -76 81 5 -19 -136 -99 -94
-68 -78 83 5 -20 -137 -98 -93
-69 -81 84 5 -22 -139 -99 -93
-68 -83 83 5 -24 -142 -102 -93
-70 -83 82 5 -24 -145 -106 -94
-73 -83 83 5 -24 -146 -107 -93
-75 -85 85 5 -26 -145 -107 -91
-73 -88 88 5 -29 -146 -107 -88
-70 -89 89 6 -31 -149 -109 -87
-68 -88 88 5 -34 -151 -112 -88
-68 -88 85 3 -39 -151 -113 -91
-68 -88 83 0 -44 -151 -112 -93
-68 -88 82 -1 -46 -151 -112 -93
-68 -88 83 -0 -44 -151 -112 -93
-68 -90 86 2 -41 -151 -112 -93
-68 -93 88 5 -39 -151 -112 -93
-68 -94 89 6 -39 -153 -112 -93
-68 -93 88 5 -39 -156 -112 -93
-68 -93 88 2 -39 -158 -112 -93
-68 -93 88 0 -39 -161 -112 -93
-69 -92 88 -0 -38 -163 -110 -91
-68 -88 88 -0 -34 -161 -107 -88
-65 -84 88 -0 -28 -155 -104 -87
-63 -83 88 0 -24 -151 -102 -88
-62 -84 88 2 -24 -150 -100 -89
-63 -83 88 5 -24 -151 -98 -88
-63 -80 88 8 -22 -149 -95 -85
-63 -78 88 10 -20 -146 -93 -83
-63 -79 88 11 -20 -145 -94 -85
-63 -83 88 10 -20 -146 -98 -88
-63 -86 88 9 -18 -145 -101 -89
-63 -88 88 10 -15 -142 -102 -88
-61 -88 88 13 -14 -141 -100 -88
-59 -88 88 15 -15 -142 -98 -88
-58 -88 88 15 -16 -143 -97 -88
-59 -88 88 15 -15 -142 -98 -88
-60 -89 88 15 -12 -139 -99 -88
-59 -88 88 15 -10 -137 -98 -88
-56 -87 88 15 -10 -136 -95 -88
-54 -88 88 15 -10 -137 -93 -88
-54 -90 88 17 -9 -138 -92 -88
-54 -88 88 20 -5 -137 -93 -88
-54 -82 88 22 1 -134 -93 -86
-54 -78 88 24 5 -132 -93 -83
-56 -80 88 27 6 -132 -93 -82
-59 -83 88 29 5 -132 -93 -83
-60 -82 88 30 4 -132 -93 -86
-59 -78 88 29 5 -132 -93 -88
-56 -76 87 29 7 -132 -93 -89
-54 -78 88 29 10 -132 -93 -88
-54 -79 90 29 13 -130 -93 -86
-54 -78 93 29 15 -127 -93 -83
-54 -77 94 29 15 -126 -93 -82
-54 -78 93 29 15 -127 -93 -83
-54 -80 92 29 15 -128 -93 -86
-54 -83 93 29 15 -127 -93 -88
-54 -86 96 29 15 -125 -93 -87
-54 -88 98 29 15 -122 -93 -83
-54 -88 98 29 15 -119 -92 -80
-54 -88 98 29 15 -117 -93 -78
-54 -88 98 29 15 -117 -95 -79
-54 -88 98 29 15 -117 -98 -83
-54 -88 98 29 15 -117 -99 -86
-54 -88 98 29 15 -117 -98 -83
-54 -88 100 27 16 -119 -97 -76
-54 -88 102 24 15 -122 -98 -73
-54 -88 103 21 14 -123 -100 -77
-54 -88 102 20 15 -122 -102 -83
-55 -88 100 20 18 -120 -102 -85
-54 -88 98 20 20 -117 -102 -83
-52 -87 98 20 18 -115 -102 -82
-54 -88 98 20 15 -117 -102 -83
-62 -90 98 21 14 -122 -102 -83
-73 -93 98 24 15 -127 -102 -83
-82 -94 98 28 15 -129 -102 -85
-83 -93 98 29 15 -127 -102 -88
-75 -92 98 27 18 -124 -102 -88
-63 -93 98 24 20 -122 -102 -88
-52 -94 98 23 20 -122 -102 -88
-49 -93 98 24 20 -122 -102 -88
-56 -92 98 24 21 -121 -102 -84
-68 -93 102 24 20 -122 -102 -78
-79 -96 107 24 15 -124 -101 -75
-83 -98 107 24 10 -127 -102 -78
-80 -99 102 23 8 -128 -105 -84
-73 -98 98 20 10 -127 -107 -88
-67 -98 101 16 11 -127 -107 -89
-63 -98 107 15 10 -127 -107 -88
-62 -98 109 15 8 -127 -108 -87
-63 -98 107 15 5 -127 -112 -88
-63 -98 107 13 2 -129 -115 -89
-63 -98 107 10 0 -132 -117 -88
-62 -98 105 9 -1 -134 -117 -86
-63 -98 102 10 -0 -132 -117 -83
-65 -98 101 10 0 -129 -117 -82
-68 -98 102 10 0 -127 -117 -83
-70 -97 103 10 -0 -128 -117 -86
-73 -98 102 10 -0 -132 -117 -88
-75 -100 101 10 0 -135 -117 -89
-73 -102 102 10 -0 -137 -117 -88
-68 -102 103 10 -0 -137 -117 -86
-63 -102 102 10 0 -137 -117 -83
-62 -102 100 8 0 -137 -117 -79
-63 -102 98 5 -0 -137 -117 -78
-63 -102 97 4 -1 -137 -117 -80
-59 -102 98 5 0 -137 -117 -83
-55 -102 98 6 3 -137 -117 -84
-54 -102 98 5 5 -137 -117 -83
-57 -102 98 4 4 -137 -117 -83
-59 -102 98 5 -0 -137 -117 -88
-59 -102 98 8 -4 -137 -117 -96
-59 -102 98 10 -5 -137 -117 -102
-62 -101 99 11 -3 -137 -117 -101
-68 -102 102 10 -0 -137 -117 -93
-72 -105 106 10 1 -137 -116 -84
-73 -107 107 10 0 -137 -117 -83
-71 -107 105 10 -0 -137 -119 -88
-68 -107 102 10 -0 -137 -122 -93
-67 -107 101 10 -0 -138 -123 -93
-68 -107 102 10 0 -137 -122 -93
-71 -105 102 11 2 -134 -119 -93
-73 -102 102 10 5 -132 -117 -88
-74 -101 102 8 6 -131 -116 -80
-73 -102 102 5 5 -132 -117 -78
-71 -103 102 4 2 -132 -117 -86
-68 -102 102 5 -0 -132 -117 -93
-65 -101 102 8 -1 -132 -117 -91
-63 -102 102 10 0 -132 -117 -83
-63 -103 102 11 2 -132 -117 -80
-63 -102 102 10 5 -132 -117 -83
-63 -100 102 10 6 -132 -115 -84
-63 -102 102 10 5 -132 -112 -83
-63 -108 100 9 1 -132 -111 -82
-63 -112 98 5 -5 -132 -112 -83
-63 -108 97 1 -9 -132 -115 -83
-63 -102 98 0 -10 -132 -117 -83
-61 -100 98 2 -10 -132 -117 -86
-59 -102 98 -0 -10 -132 -117 -93
-58 -103 98 -6 -11 -132 -119 -100
-59 -102 98 -10 -10 -132 -122 -102
-60 -101 98 -6 -9 -132 -124 -96
-59 -102 98 -0 -10 -132 -122 -83
-57 -102 98 2 -15 -132 -118 -70
-59 -102 98 0 -20 -132 -117 -63
-65 -102 98 -1 -21 -131 -118 -65
-68 -102 98 -0 -20 -132 -117 -73
-65 -100 98 1 -20 -135 -115 -82
-59 -98 98 0 -20 -137 -117 -88
-57 -97 98 -0 -18 -137 -123 -90
-59 -98 98 -0 -15 -137 -127 -88
-60 -98 98 0 -14 -137 -124 -85
-59 -98 98 0 -15 -137 -117 -83
-58 -98 99 -0 -16 -136 -114 -84
-59 -98 98 -0 -15 -137 -117 -88
-59 -98 96 0 -14 -139 -121 -92
-59 -98 93 0 -15 -142 -122 -93
-60 -98 92 -0 -18 -143 -122 -92
-63 -98 93 -0 -20 -142 -122 -93
-66 -98 94 0 -20 -142 -122 -96
-68 -98 93 0 -20 -142 -122 -98
-68 -98 91 0 -20 -142 -122 -97
-68 -98 88 0 -20 -142 -122 -93
-68 -98 87 0 -20 -142 -122 -89
-68 -98 88 -0 -20 -142 -122 -88
-66 -96 91 -0 -22 -142 -122 -88
-63 -93 93 0 -24 -142 -122 -88
-60 -90 94 0 -25 -143 -122 -88
-59 -88 93 0 -24 -146 -122 -88
-61 -88 92 -0 -22 -147 -122 -88
-63 -88 93 -0 -20 -146 -122 -88
-64 -88 94 -0 -20 -142 -122 -88
-63 -88 93 0 -20 -137 -122 -88
-62 -90 91 0 -21 -135 -122 -88
-63 -93 88 -0 -24 -137 -122 -88
-65 -96 85 -0 -27 -140 -122 -88
-68 -98 83 0 -29 -142 -122 -88
-69 -98 82 0 -28 -142 -123 -88
-68 -98 83 -0 -24 -142 -122 -88
-65 -96 84 0 -21 -142 -119 -88
-63 -93 83 0 -20 -142 -117 -88
-62 -91 79 -1 -22 -141 -116 -88
-63 -93 78 -5 -24 -142 -117 -88
-64 -98 81 -9 -25 -145 -118 -88
-63 -102 83 -10 -24 -146 -117 -88
-61 -100 81 -7 -24 -144 -115 -88
-59 -93 78 -5 -24 -142 -112 -88
-56 -87 77 -5 -24 -141 -109 -88
-54 -83 78 -5 -24 -142 -107 -88
-53 -82 79 -3 -23 -142 -108 -88
-54 -83 78 -0 -24 -142 -112 -88
-57 -86 78 1 -27 -144 -115 -88
-59 -88 78 0 -29 -146 -117 -88
-60 -89 78 -1 -30 -147 -117 -88
-59 -88 78 -0 -29 -146 -117 -88
-59 -88 78 0 -29 -146 -117 -88
-59 -88 78 0 -29 -146 -117 -88
-59 -88 78 -0 -29 -146 -117 -90
-59 -88 78 -0 -29 -146 -117 -93
-59 -88 78 0 -29 -146 -117 -96
-59 -88 78 0 -29 -146 -117 -98
-60 -88 78 -0 -29 -146 -117 -98
-63 -88 78 -0 -29 -146 -117 -98
-66 -88 78 0 -29 -146 -117 -98
-68 -88 78 0 -29 -146 -117 -98
-68 -88 78 -0 -29 -146 -117 -98
-68 -88 78 -0 -29 -146 -117 -98
-68 -88 78 0 -29 -146 -117 -98
-68 -88 78 0 -29 -146 -117 -98
-68 -88 76 0 -29 -146 -119 -98
-68 -88 73 0 -29 -146 -122 -98
-68 -88 70 0 -29 -146 -125 -98
-68 -88 68 0 -29 -146 -127 -98
-68 -88 68 0 -29 -146 -127 -95
-68 -88 68 0 -29 -146 -127 -88
-68 -88 68 0 -29 -146 -127 -81
-68 -88 68 0 -29 -146 -127 -78
-68 -90 68 0 -29 -146 -127 -81
-68 -93 68 0 -29 -146 -127 -88
-68 -96 68 0 -29 -146 -127 -95
-68 -98 68 0 -29 -146 -127 -98
-68 -98 68 0 -29 -146 -127 -98
-68 -98 68 -0 -29 -146 -127 -98
-68 -98 68 -0 -29 -146 -127 -98
-68 -98 68 0 -29 -146 -127 -98
-68 -98 66 0 -29 -145 -129 -98
-68 -98 63 -0 -29 -142 -132 -98
-68 -98 60 -0 -29 -139 -135 -98
-68 -98 59 0 -29 -137 -137 -98
-68 -98 59 0 -27 -137 -137 -98
-68 -98 59 -0 -24 -137 -137 -98
-68 -98 59 -0 -21 -137 -137 -98
-68 -98 59 0 -20 -137 -137 -98
-68 -98 59 0 -20 -137 -137 -98
-68 -98 59 -0 -20 -137 -137 -98
-68 -98 59 -0 -20 -137 -136 -98
-68 -98 59 0 -20 -137 -137 -98
-68 -98 59 0 -20 -137 -139 -101
-68 -98 59 -0 -20 -137 -142 -107
-68 -98 59 -0 -20 -137 -145 -114
-68 -98 59 0 -20 -137 -146 -117
-68 -96 60 2 -20 -137 -146 -112
-68 -93 63 5 -20 -137 -146 -102
-68 -90 66 8 -20 -137 -146 -92
-68 -88 68 10 -20 -137 -146 -88
-68 -87 70 11 -20 -137 -146 -92
-68 -88 73 10 -20 -137 -146 -102
-68 -89 76 9 -20 -137 -146 -112
-68 -88 78 10 -20 -137 -146 -117
-66 -86 78 14 -18 -135 -146 -114
-63 -83 78 20 -15 -132 -146 -107
-60 -80 78 26 -12 -129 -146 -101
-59 -78 78 29 -10 -127 -146 -98
-59 -76 78 30 -8 -126 -146 -97
-59 -73 78 29 -5 -127 -146 -98
-59 -70 78 29 -3 -127 -146 -98
-59 -68 78 29 0 -127 -146 -98
-59 -64 78 29 4 -125 -143 -96
-59 -59 78 29 10 -122 -137 -93
-60 -53 78 29 16 -119 -131 -90
-59 -49 78 29 20 -117 -127 -88
-57 -48 80 31 21 -117 -126 -87
-54 -49 83 34 20 -117 -127 -88
-51 -49 87 37 20 -117 -127 -88
-49 -49 88 39 20 -117 -127 -88
-48 -49 88 39 20 -117 -127 -87
-49 -49 88 39 20 -117 -127 -88
-51 -49 90 39 19 -118 -127 -89
-49 -49 88 39 20 -117 -127 -88
-42 -47 80 39 22 -113 -124 -84
-34 -44 68 39 24 -107 -117 -78
-28 -41 57 39 25 -101 -110 -74
-24 -39 49 39 24 -98 -107 -73
-20 -37 42 40 25 -97 -107 -72
-20 -34 34 39 29 -93 -102 -68
-25 -28 25 35 35 -85 -91 -61
-29 -20 15 29 39 -78 -83 -54
-26 -13 7 25 37 -77 -85 -52
-20 -10 5 24 29 -83 -93 -54
-18 -12 6 23 20 -89 -98 -57
-20 -15 5 20 15 -93 -98 -59
-22 -15 -1 14 14 -93 -97 -60
-20 -10 -5 10 15 -93 -98 -63
-17 -6 -3 9 14 -93 -98 -67
-15 -10 -0 10 10 -93 -98 -68
-16 -21 0 8 6 -95 -98 -67
-20 -29 0 5 5 -98 -98 -68
-23 -29 4 3 4 -101 -97 -73
-24 -29 10 5 -0 -102 -98 -78
-23 -37 12 8 -8 -103 -104 -81
-24 -49 10 10 -15 -107 -112 -83
-30 -56 9 11 -17 -115 -119 -88
-39 -54 15 15 -15 -122 -122 -93
-45 -51 25 20 -14 -124 -123 -96
-49 -54 34 24 -15 -122 -122 -98
-53 -61 38 24 -17 -121 -123 -100
-59 -68 39 24 -20 -127 -127 -102
-63 -71 39 26 -24 -136 -135 -105
-63 -73 39 29 -29 -142 -142 -112
-61 -77 37 29 -34 -143 -147 -123
-63 -83 34 24 -39 -146 -151 -132
-68 -87 33 18 -43 -152 -156 -133
-73 -88 34 15 -44 -156 -161 -127
-74 -87 34 16 -41 -156 -164 -121
-73 -88 34 15 -39 -156 -166 -122
-74 -93 34 10 -43 -161 -169 -127
-78 -98 34 5 -49 -166 -171 -132
-82 -99 34 5 -53 -165 -169 -133
-83 -98 34 10 -54 -161 -166 -132
-83 -97 34 14 -54 -159 -165 -130
-83 -98 34 15 -54 -161 -166 -127
-84 -100 34 15 -54 -162 -167 -125
-83 -102 34 15 -54 -161 -166 -127
-80 -102 34 15 -54 -161 -166 -130
-78 -102 34 15 -54 -161 -166 -132
-77 -102 34 15 -54 -161 -166 -130
-78 -102 34 15 -54 -161 -166 -127
-78 -102 34 15 -56 -163 -166 -126
-78 -102 34 15 -59 -166 -166 -127
-78 -102 34 15 -60 -167 -168 -127
-78 -102 34 15 -59 -166 -171 -127
-78 -102 34 15 -57 -164 -174 -129
-78 -102 34 15 -54 -161 -176 -132
-78 -102 34 15 -51 -158 -176 -132
-78 -102 34 15 -49 -156 -176 -132
-78 -102 34 15 -48 -157 -176 -133
-78 -102 34 15 -49 -161 -176 -137
-78 -102 34 15 -49 -164 -175 -140
-78 -102 34 15 -49 -166 -176 -142
-77 -102 34 15 -49 -166 -178 -144
-78 -102 34 15 -49 -166 -181 -146
-81 -102 34 15 -49 -166 -182 -147
-83 -102 34 15 -49 -166 -181 -146
-82 -101 34 15 -48 -166 -180 -143
-78 -102 34 15 -49 -166 -181 -142
-72 -105 34 15 -50 -167 -182 -142
-68 -107 34 15 -49 -166 -181 -142
-70 -107 32 15 -46 -164 -179 -142
-78 -107 29 15 -44 -161 -176 -142
-86 -107 26 15 -45 -160 -175 -144
-88 -107 24 15 -44 -161 -176 -146
-85 -105 24 16 -40 -160 -177 -146
-83 -102 24 20 -34 -156 -176 -146
-85 -98 23 25 -30 -149 -172 -145
-83 -93 20 29 -24 -142 -166 -142
-76 -87 16 29 -16 -137 -161 -135
-68 -83 10 29 -5 -132 -156 -127
-66 -82 3 29 1 -126 -152 -123
-63 -78 -5 29 5 -117 -146 -122
-54 -70 -13 30 10 -108 -140 -122
-39 -59 -24 34 20 -98 -132 -117
-28 -51 -34 42 34 -89 -124 -109
-20 -44 -44 49 49 -73 -112 -98
-9 -36 -53 57 66 -54 -98 -89
10 -24 -68 68 83 -29 -83 -78
34 -17 -85 93 104 -5 -70 -68
59 -15 -98 127 132 20 -54 -59
83 -12 -107 163 173 51 -31 -48
107 5 -122 190 229 93 0 -29
128 35 -142 212 311 148 34 -0
146 73 -161 234 415 215 73 34
168 119 -184 253 522 300 127 76
205 185 -229 254 605 410 210 137
262 270 -301 239 673 551 323 226
332 356 -381 215 752 717 454 337
402 429 -450 180 849 907 599 456
464 498 -517 107 917 1119 761 576
514 577 -597 -22 919 1335 936 701
547 664 -683 -200 849 1524 1104 830
563 749 -756 -408 731 1676 1254 962
566 830 -810 -634 571 1807 1392 1089
561 913 -863 -868 370 1916 1517 1201
547 992 -922 -1084 137 1963 1602 1284
520 1045 -972 -1251 -110 1911 1615 1321
478 1055 -987 -1363 -371 1758 1548 1299
427 1007 -959 -1422 -648 1523 1411 1218
371 903 -903 -1431 -917 1221 1216 1089
313 760 -841 -1386 -1135 882 985 930
254 605 -781 -1299 -1275 556 752 761
200 467 -724 -1196 -1354 276 539 596
156 356 -669 -1099 -1397 34 342 444
126 274 -620 -1007 -1399 -174 167 316
107 215 -576 -908 -1338 -322 34 215
94 171 -535 -805 -1226 -396 -52 133
83 132 -493 -712 -1114 -425 -117 59
73 94 -453 -644 -1032 -446 -178 -4
63 68 -415 -590 -952 -449 -215 -39
48 61 -377 -534 -838 -416 -211 -46
24 68 -337 -468 -698 -356 -185 -44
-5 72 -295 -405 -578 -306 -175 -56
-29 63 -254 -351 -493 -273 -185 -78
-42 41 -214 -302 -425 -248 -193 -98
-44 15 -176 -249 -351 -220 -185 -107
-44 -10 -136 -188 -275 -197 -172 -114
-44 -29 -93 -127 -205 -171 -161 -117
-42 -43 -52 -69 -141 -140 -150 -116
-34 -49 -24 -20 -83 -107 -132 -107
-25 -51 -12 20 -34 -86 -113 -99
-20 -49 -10 44 0 -73 -98 -93
-20 -46 -8 56 20 -63 -93 -92
-20 -44 -5 59 29 -54 -93 -93
-17 -44 -1 61 38 -49 -93 -97
-15 -44 0 63 44 -49 -93 -102
-15 -44 2 64 50 -50 -95 -108
-15 -44 5 63 54 -49 -98 -112
-14 -44 8 64 62 -47 -100 -110
-15 -44 10 68 73 -44 -98 -102
-20 -44 11 75 83 -41 -95 -93
-24 -44 10 78 88 -39 -93 -88
-21 -42 8 78 91 -38 -94 -89
-15 -39 5 78 93 -39 -98 -93
-13 -38 2 82 96 -40 -101 -97
-15 -39 0 88 98 -39 -102 -102
-16 -42 -0 90 99 -37 -100 -109
-15 -44 -0 88 102 -34 -98 -112
-14 -44 -0 86 109 -32 -96 -109
-15 -44 0 88 117 -29 -93 -102
-18 -44 2 95 121 -25 -87 -98
-20 -44 5 102 122 -20 -83 -98
-20 -42 8 106 123 -17 -82 -99
-20 -39 10 107 127 -15 -83 -98
-20 -38 11 106 132 -13 -83 -97
-20 -39 10 107 137 -10 -83 -98
-18 -40 9 110 141 -7 -82 -99
-15 -39 10 112 146 -5 -78 -98
-13 -36 11 112 151 -3 -72 -93
-10 -34 10 112 156 -0 -68 -88
-5 -34 5 112 158 4 -68 -86
-0 -34 0 112 161 10 -68 -88
3 -32 -2 112 165 15 -65 -89
5 -29 0 112 171 20 -59 -88
6 -29 1 112 177 23 -55 -85
5 -29 -0 112 181 24 -54 -83
4 -27 -1 111 184 25 -54 -81
5 -24 0 112 185 29 -54 -78
8 -21 3 114 186 36 -52 -74
10 -20 5 117 190 44 -49 -68
7 -20 5 118 196 51 -46 -64
0 -20 5 117 200 54 -44 -63
-3 -20 6 116 202 54 -44 -64
-0 -20 5 117 205 54 -44 -63
9 -19 0 120 210 56 -42 -57
20 -15 -5 122 215 63 -39 -49
30 -11 -6 122 217 72 -37 -43
39 -10 -5 122 220 78 -34 -39
44 -11 -5 122 224 80 -27 -35
44 -10 -5 122 229 83 -20 -34
39 -5 -5 122 231 90 -16 -37
34 -0 -5 122 234 98 -15 -39
32 2 -7 124 240 104 -14 -38
34 0 -10 127 249 107 -10 -34
38 -1 -12 129 254 111 -4 -30
44 -0 -15 132 254 117 5 -24
50 3 -20 135 254 124 14 -16
54 5 -24 137 259 132 20 -10
54 7 -24 137 269 139 22 -9
54 10 -24 137 278 146 24 -10
54 13 -26 137 284 154 27 -7
54 15 -29 137 288 166 29 -0
56 17 -30 136 293 179 32 7
63 20 -34 137 298 190 39 15
75 25 -41 141 303 197 50 25
83 29 -49 146 312 205 59 34
84 33 -52 150 323 216 62 38
83 39 -54 151 332 229 68 39
87 47 -59 151 335 239 80 42
93 54 -68 151 337 244 93 49
97 58 -73 153 342 250 101 58
102 63 -73 156 351 264 107 68
110 71 -74 157 359 284 116 79
117 83 -83 156 366 303 127 88
120 94 -96 155 373 316 136 94
127 102 -102 156 386 327 146 102
140 111 -99 159 401 341 161 114
151 122 -98 161 415 356 176 127
154 133 -107 160 424 370 188 139
156 142 -122 161 434 386 200 151
166 148 -132 164 447 406 216 166
181 156 -137 166 464 429 234 181
193 168 -144 164 478 449 248 194
200 181 -156 161 488 468 264 205
208 191 -167 160 497 487 285 217
220 200 -176 161 508 508 307 229
230 210 -185 160 520 528 325 242
234 224 -195 156 532 551 342 259
237 239 -205 152 541 576 364 279
244 254 -215 151 551 600 390 298
256 267 -224 150 561 618 413 313
268 278 -234 146 571 634 429 327
277 287 -244 138 579 653 441 342
283 298 -254 132 586 673 454 356
288 310 -264 129 593 691 468 367
293 322 -273 127 600 708 483 376
297 332 -283 123 605 724 497 387
303 342 -293 117 610 737 512 400
311 353 -302 112 614 747 526 412
317 361 -307 107 615 756 537 425
318 366 -311 102 613 768 545 439
317 376 -317 98 610 781 551 449
319 392 -326 95 608 789 558 452
322 405 -332 93 605 791 566 449
323 408 -333 88 601 791 572 446
322 405 -332 83 595 791 576 449
321 405 -334 78 589 790 578 458
322 410 -337 73 581 786 576 468
321 411 -338 67 571 778 570 473
317 405 -337 63 561 766 561 468
310 396 -334 61 550 752 551 454
303 390 -327 59 537 737 542 439
296 385 -317 56 517 719 531 427
288 376 -307 54 493 698 512 415
278 361 -298 53 468 673 486 398
268 346 -288 54 444 644 459 376
260 334 -274 54 422 613 433 355
249 322 -259 54 400 581 405 337
235 307 -245 56 378 547 375 320
220 288 -229 59 356 512 346 298
206 268 -210 61 334 475 321 271
190 249 -190 59 312 439 293 244
173 228 -173 56 287 401 258 218
161 205 -156 54 259 361 220 190
153 184 -137 56 231 321 187 161
142 166 -117 59 210 288 161 137
122 148 -100 62 196 261 134 119
102 127 -88 63 181 234 102 98
90 105 -78 63 158 201 71 71
83 88 -68 63 132 171 49 49
73 79 -57 63 112 149 34 37
59 73 -44 63 102 132 20 29
45 61 -30 63 93 111 0 12
34 44 -20 63 78 88 -20 -10
24 27 -13 63 61 69 -38 -28
15 15 -5 63 49 54 -54 -39
7 7 6 63 42 38 -72 -47
-0 -0 15 63 34 20 -88 -54
-6 -8 20 63 21 4 -100 -59
-10 -15 24 63 10 -5 -107 -63
-13 -22 31 63 5 -11 -116 -70
-15 -29 39 63 -0 -20 -127 -78
-19 -37 44 63 -10 -33 -137 -84
-24 -44 44 63 -20 -44 -142 -88
-28 -49 45 63 -24 -51 -142 -91
-29 -54 49 63 -24 -54 -142 -93
-28 -59 55 63 -28 -58 -144 -93
-29 -63 59 63 -34 -63 -146 -93
-34 -64 62 63 -38 -67 -146 -96
-39 -63 63 63 -39 -68 -146 -102
-40 -63 63 63 -41 -70 -148 -108
-39 -63 63 63 -44 -73 -151 -112
-41 -63 62 63 -44 -75 -153 -115
-44 -63 63 63 -44 -73 -151 -117
-46 -65 65 63 -46 -69 -147 -118
-44 -68 68 63 -49 -68 -146 -117
-41 -69 69 63 -52 -70 -148 -116
-39 -68 68 63 -54 -73 -151 -117
-39 -68 66 61 -58 -74 -152 -120
-39 -68 63 59 -63 -73 -151 -122
-39 -68 62 58 -65 -73 -151 -122
-39 -68 63 59 -63 -73 -151 -122
-39 -70 66 61 -60 -73 -151 -122
-39 -73 68 63 -59 -73 -151 -122
-39 -74 68 66 -59 -73 -151 -122
-39 -73 68 68 -59 -73 -151 -122
-38 -72 68 68 -59 -72 -151 -122
-39 -73 68 68 -59 -73 -151 -122
-43 -74 66 68 -60 -74 -153 -120
-49 -73 63 68 -59 -73 -156 -117
-54 -72 60 68 -56 -68 -160 -116
-54 -73 59 68 -54 -63 -161 -117
-49 -76 59 70 -54 -62 -159 -118
-39 -78 59 73 -54 -63 -156 -117
-29 -79 59 76 -52 -61 -153 -114
-24 -78 59 78 -49 -59 -151 -112
-26 -78 59 79 -49 -59 -150 -112
-34 -78 59 78 -49 -59 -151 -112
-41 -78 59 77 -47 -57 -152 -110
-44 -78 59 78 -44 -54 -151 -107
-42 -78 59 81 -43 -53 -149 -106
-39 -78 59 83 -44 -54 -146 -107
-38 -78 59 83 -45 -55 -145 -107
-39 -78 59 83 -44 -54 -146 -107
-40 -79 59 83 -43 -53 -147 -107
-39 -78 59 83 -44 -54 -146 -107
-36 -77 59 83 -46 -56 -144 -107
-34 -78 59 83 -49 -59 -142 -107
-34 -80 59 83 -50 -60 -142 -107
-34 -78 59 83 -49 -59 -142 -107
-34 -72 59 82 -46 -56 -142 -104
-34 -68 59 83 -44 -54 -142 -102
-36 -70 59 86 -43 -54 -142 -103
-39 -73 59 88 -44 -54 -142 -107
-40 -72 60 88 -44 -54 -142 -113
-39 -68 59 88 -44 -54 -142 -117
-36 -66 57 89 -44 -55 -142 -118
-34 -68 54 93 -44 -54 -142 -117
-33 -69 53 96 -44 -52 -142 -115
-34 -68 54 98 -44 -49 -142 -112
-36 -67 55 98 -44 -48 -142 -111
-39 -68 54 98 -44 -49 -142 -112
-42 -70 53 98 -44 -49 -142 -115
-44 -73 54 98 -44 -49 -142 -117
-44 -76 57 98 -42 -49 -142 -115
-44 -78 59 98 -39 -49 -142 -112
-44 -79 60 98 -36 -49 -142 -109
-44 -78 59 98 -34 -49 -142 -107
-44 -76 59 98 -33 -49 -144 -106
-44 -73 59 98 -34 -49 -146 -107
-44 -70 59 98 -34 -48 -147 -106
-44 -68 59 98 -34 -49 -146 -102
-44 -68 59 98 -33 -51 -145 -95
-44 -68 59 98 -34 -54 -146 -93
-44 -68 57 98 -35 -55 -149 -97
-44 -68 54 98 -34 -54 -151 -102
-45 -68 51 99 -33 -52 -151 -103
-44 -68 49 102 -34 -49 -151 -102
-43 -67 49 105 -39 -47 -151 -102
-44 -68 49 107 -44 -49 -151 -102
-49 -70 49 107 -47 -54 -151 -102
-54 -73 49 107 -49 -59 -151 -102
-56 -74 49 107 -52 -61 -151 -104
-54 -73 49 107 -54 -59 -151 -107
-49 -72 49 105 -52 -56 -149 -107
-44 -73 49 102 -49 -54 -146 -107
-40 -73 50 101 -49 -54 -143 -107
-39 -73 49 102 -49 -54 -142 -107
-41 -72 48 102 -48 -53 -142 -103
-44 -73 49 102 -49 -54 -142 -98
-44 -75 51 102 -54 -56 -141 -96
-44 -78 49 102 -59 -59 -142 -98
-47 -80 43 102 -61 -60 -144 -101
-54 -83 39 102 -59 -59 -146 -102
-61 -86 43 102 -58 -59 -146 -100
-63 -88 49 102 -59 -59 -146 -98
-60 -88 51 103 -59 -59 -146 -97
-54 -88 49 102 -59 -59 -146 -98
-48 -88 48 100 -59 -60 -146 -98
-44 -88 49 98 -59 -63 -146 -98
-43 -88 47 98 -59 -66 -146 -98
-44 -88 44 98 -59 -68 -146 -98
-46 -88 43 98 -59 -68 -146 -99
-49 -88 44 98 -59 -68 -146 -102
-53 -87 45 98 -59 -68 -146 -105
-59 -88 44 98 -59 -68 -146 -107
-63 -90 43 98 -59 -68 -146 -107
-63 -93 44 98 -59 -68 -146 -107
-59 -94 45 98 -59 -68 -146 -107
-54 -93 44 98 -59 -68 -146 -107
-53 -93 41 96 -58 -68 -146 -107
-54 -93 39 93 -59 -68 -146 -107
-53 -93 38 92 -61 -68 -146 -109
-49 -93 39 93 -63 -68 -146 -112
-45 -93 39 94 -64 -68 -146 -114
-44 -93 39 93 -63 -68 -146 -112
-47 -93 39 92 -62 -70 -146 -107
-49 -93 39 93 -63 -73 -146 -102
-49 -94 39 96 -64 -76 -146 -100
-49 -93 39 98 -63 -78 -146 -102
-51 -90 39 99 -62 -78 -145 -103
-54 -88 39 98 -63 -78 -142 -102
-55 -87 40 98 -66 -78 -138 -100
-54 -88 39 98 -68 -78 -137 -102
-51 -88 36 98 -68 -78 -139 -108
-49 -88 34 98 -68 -78 -142 -112
-48 -88 33 98 -68 -79 -143 -112
-49 -88 34 98 -68 -78 -142 -112
-52 -88 34 99 -66 -76 -139 -111
-54 -88 34 98 -63 -73 -137 -107
-55 -90 34 96 -62 -72 -137 -100
-54 -93 34 93 -63 -73 -137 -98
-54 -94 34 92 -66 -73 -137 -105
-54 -93 34 93 -68 -73 -137 -112
-54 -92 34 96 -69 -72 -137 -109
-54 -93 34 98 -68 -73 -137 -102
-54 -94 34 99 -66 -75 -137 -99
-54 -93 34 98 -63 -78 -137 -102
-54 -91 35 97 -62 -81 -135 -103
-54 -93 34 98 -63 -83 -132 -102
-54 -99 31 99 -66 -83 -129 -101
-54 -102 29 98 -68 -83 -127 -102
-54 -99 28 97 -69 -83 -127 -103
-54 -93 29 98 -68 -83 -127 -102
-54 -91 29 100 -67 -83 -127 -102
-54 -93 29 98 -68 -83 -127 -102
-56 -94 29 92 -69 -83 -129 -102
-59 -93 29 88 -68 -83 -132 -102
-61 -91 29 92 -66 -83 -134 -102
-59 -88 29 98 -68 -83 -132 -102
-57 -85 29 100 -73 -83 -128 -102
-59 -83 29 98 -78 -83 -127 -102
-65 -83 29 97 -79 -82 -129 -101
-68 -83 29 98 -78 -83 -132 -102
-65 -80 29 99 -78 -85 -134 -104
-59 -78 29 98 -78 -88 -137 -107
-57 -79 29 97 -78 -90 -143 -108
-59 -83 29 98 -78 -93 -146 -107
-60 -87 29 98 -80 -96 -143 -104
-59 -88 29 98 -83 -98 -137 -102
-58 -88 30 98 -84 -98 -134 -101
-59 -88 29 98 -83 -98 -137 -102
-59 -88 27 98 -82 -99 -140 -103
-59 -88 24 98 -83 -102 -142 -102
-59 -88 23 96 -86 -106 -142 -101
-59 -88 24 93 -88 -112 -142 -102
-59 -88 24 90 -88 -119 -142 -105
-59 -88 24 88 -88 -122 -142 -107
-59 -88 23 88 -88 -119 -140 -105
-59 -88 24 88 -88 -112 -137 -98
-59 -88 26 88 -88 -105 -134 -91
-59 -88 29 88 -88 -102 -132 -88
-59 -88 32 88 -90 -101 -132 -91
-59 -88 34 88 -93 -102 -132 -98
-59 -88 34 88 -94 -104 -132 -104
-59 -88 34 88 -93 -107 -132 -107
-61 -86 34 88 -90 -109 -132 -107
-63 -83 34 88 -88 -107 -132 -107
-64 -80 34 88 -87 -102 -132 -107
-63 -78 34 88 -88 -98 -132 -107
-62 -78 34 88 -90 -97 -132 -107
-63 -78 34 88 -93 -102 -132 -107
-65 -78 34 88 -96 -108 -131 -107
-68 -78 34 88 -98 -112 -132 -107
-69 -78 33 88 -99 -112 -134 -107
-68 -78 34 88 -98 -112 -137 -107
-65 -76 35 88 -97 -112 -138 -107
-63 -73 34 88 -98 -112 -137 -107
-62 -71 31 86 -100 -111 -137 -107
-63 -73 29 83 -102 -112 -137 -107
-63 -79 31 80 -103 -115 -137 -107
-63 -83 34 78 -102 -117 -137 -107
-63 -82 34 77 -101 -117 -137 -109
-63 -78 34 78 -102 -117 -137 -112
-64 -75 36 81 -103 -120 -137 -115
-63 -73 39 83 -102 -122 -137 -117
-61 -72 40 83 -100 -120 -137 -116
-59 -73 39 83 -98 -117 -137 -112
-58 -75 38 85 -98 -116 -137 -108
-59 -78 39 88 -98 -117 -137 -107
-61 -79 39 89 -98 -118 -137 -112
-63 -78 39 88 -98 -117 -137 -122
-66 -78 39 88 -98 -117 -137 -133
-68 -78 39 88 -98 -117 -137 -137
-68 -78 39 88 -98 -117 -137 -131
-68 -78 39 88 -98 -117 -137 -117
-68 -78 39 88 -98 -117 -137 -104
-68 -78 39 88 -98 -117 -137 -98
-68 -78 39 88 -98 -117 -137 -102
-68 -78 39 88 -98 -117 -137 -112
-68 -78 39 88 -98 -117 -137 -123
-68 -78 39 88 -98 -117 -137 -127
-66 -78 39 88 -96 -117 -137 -122
-63 -78 39 88 -93 -117 -137 -112
-60 -78 39 88 -90 -117 -137 -102
-59 -78 39 88 -88 -117 -137 -98
-59 -78 39 86 -88 -117 -137 -100
-59 -78 39 83 -88 -117 -137 -107
-59 -78 39 80 -88 -117 -137 -113
-59 -78 39 78 -88 -117 -137 -117
-60 -78 41 78 -88 -117 -137 -118
-63 -78 44 78 -88 -117 -137 -117
-66 -78 47 78 -88 -117 -137 -117
-68 -78 49 78 -88 -117 -137 -117
-68 -78 49 78 -88 -117 -137 -117
-68 -78 49 78 -88 -117 -137 -117
-68 -78 49 78 -88 -117 -137 -117
-68 -78 49 78 -88 -117 -137 -117
-68 -78 51 78 -88 -117 -137 -117
-68 -78 54 78 -88 -117 -137 -117
-68 -78 57 78 -88 -117 -137 -117
-68 -78 59 78 -88 -117 -137 -117
-68 -78 59 78 -88 -117 -137 -117
-68 -78 59 78 -88 -117 -137 -117
-67 -78 59 78 -88 -117 -137 -117
-68 -78 59 78 -88 -117 -137 -117
-71 -78 59 78 -88 -117 -137 -117
-78 -78 59 78 -88 -117 -137 -117
-85 -78 59 78 -88 -117 -137 -117
-88 -78 59 78 -88 -117 -137 -117
-85 -78 59 78 -88 -117 -137 -117
-78 -78 59 78 -88 -117 -137 -117
-71 -78 59 78 -88 -117 -137 -117
-68 -78 59 78 -88 -117 -137 -117
-67 -78 60 78 -90 -117 -139 -117
-68 -78 63 78 -93 -117 -142 -117
-68 -78 66 78 -96 -117 -145 -117
-68 -78 68 78 -98 -117 -146 -117
-68 -78 68 78 -98 -119 -146 -117
-68 -78 68 78 -98 -122 -146 -117
-68 -78 68 78 -98 -125 -146 -116
-68 -78 68 78 -98 -127 -146 -117
-68 -78 68 78 -98 -127 -146 -120
-68 -78 68 78 -98 -127 -146 -127
-68 -78 67 78 -98 -127 -146 -134
-68 -78 68 78 -98 -127 -146 -137
-68 -78 70 78 -98 -125 -145 -134
-68 -78 73 78 -98 -122 -142 -127
-68 -78 76 78 -98 -119 -139 -120
-68 -78 78 78 -98 -117 -137 -117
-68 -76 80 80 -96 -115 -137 -116
-68 -73 83 83 -93 -112 -137 -117
-68 -70 86 86 -90 -109 -137 -117
-68 -68 88 88 -88 -107 -137 -117
-68 -67 90 88 -86 -106 -137 -115
-68 -68 93 88 -83 -107 -137 -112
-68 -69 95 87 -80 -108 -137 -109
-68 -68 98 88 -78 -107 -137 -107
-66 -65 102 90 -76 -105 -135 -104
-63 -59 107 93 -73 -102 -132 -98
-60 -53 113 96 -70 -99 -129 -91
-59 -49 117 98 -68 -98 -127 -88
-59 -48 118 98 -68 -98 -127 -94
-59 -49 117 98 -68 -98 -127 -107
-59 -49 116 98 -68 -98 -127 -121
-59 -49 117 98 -68 -98 -127 -127
-57 -48 120 98 -68 -96 -127 -123
-54 -49 127 98 -68 -93 -127 -112
-50 -50 135 98 -68 -90 -127 -102
-49 -49 137 98 -68 -88 -127 -98
-50 -45 130 98 -66 -86 -126 -99
-49 -39 117 98 -63 -83 -122 -98
-45 -33 106 98 -60 -80 -118 -95
-39 -29 98 98 -59 -78 -117 -93
-35 -27 91 99 -60 -77 -117 -93
-34 -24 83 98 -59 -73 -112 -88
-33 -18 73 94 -54 -66 -101 -75
-29 -10 63 88 -49 -59 -93 -63
-24 -5 54 84 -47 -57 -93 -61
-20 -5 49 83 -49 -59 -98 -68
-19 -9 47 82 -52 -62 -100 -76
-20 -15 44 78 -54 -63 -98 -78
-21 -17 41 72 -56 -63 -97 -76
-20 -15 44 68 -59 -63 -98 -73
-17 -14 52 67 -63 -63 -98 -71
-15 -20 59 68 -68 -63 -98 -68
-14 -31 60 66 -72 -64 -98 -66
-15 -39 59 63 -73 -68 -98 -68
-16 -39 62 61 -73 -71 -97 -73
-15 -39 68 63 -78 -73 -98 -78
-15 -47 72 66 -88 -74 -104 -80
-20 -59 73 68 -98 -78 -112 -83
-30 -65 75 69 -102 -86 -119 -88
-39 -63 83 73 -102 -93 -122 -93
-42 -60 94 79 -101 -95 -122 -96
-39 -63 102 83 -102 -93 -122 -98
-36 -71 106 84 -104 -92 -123 -100
-39 -78 107 83 -107 -98 -127 -102
-47 -81 108 83 -112 -106 -135 -105
-54 -83 107 83 -117 -112 -142 -112
-59 -87 105 80 -122 -114 -147 -123
-63 -93 102 73 -127 -117 -151 -132
-69 -99 101 66 -133 -121 -155 -133
-73 -102 102 63 -137 -122 -156 -127
-74 -104 102 64 -137 -118 -155 -121
-73 -107 102 63 -137 -117 -156 -122
-74 -110 102 56 -140 -124 -161 -127
-78 -112 102 49 -146 -132 -166 -132
-82 -110 102 46 -150 -134 -167 -133
-83 -107 102 49 -151 -132 -166 -132
-83 -105 102 52 -151 -131 -165 -130
-83 -107 102 54 -151 -132 -166 -127
-83 -110 102 54 -151 -133 -166 -125
-83 -112 102 54 -151 -132 -166 -127
-82 -112 102 54 -151 -132 -166 -132
-83 -112 102 54 -151 -132 -166 -137
-86 -112 102 54 -150 -132 -166 -138
-88 -112 102 54 -151 -132 -166 -137
-89 -112 104 54 -153 -134 -166 -137
-88 -112 107 54 -156 -137 -166 -137
-88 -112 110 54 -157 -138 -168 -137
-88 -112 112 54 -156 -137 -171 -137
-88 -112 112 54 -156 -137 -174 -139
-88 -112 112 54 -156 -137 -176 -142
-88 -112 112 54 -156 -137 -176 -143
-88 -112 112 54 -156 -137 -176 -142
-88 -112 112 54 -158 -139 -176 -142
-88 -112 112 54 -161 -142 -176 -142
-88 -112 112 54 -164 -145 -175 -142
-88 -112 112 54 -166 -146 -176 -142
-86 -112 112 54 -166 -146 -178 -143
-83 -112 112 54 -166 -146 -181 -146
-82 -112 112 54 -166 -146 -182 -147
-83 -112 112 54 -166 -146 -181 -146
-86 -111 112 54 -166 -146 -180 -145
-88 -112 112 54 -166 -146 -181 -146
-89 -115 112 54 -167 -146 -182 -149
-88 -117 112 54 -166 -146 -181 -151
-89 -117 112 54 -165 -144 -179 -151
-93 -117 112 54 -166 -142 -176 -151
-98 -117 112 54 -170 -141 -175 -153
-98 -117 112 54 -171 -142 -176 -156
-95 -115 114 55 -168 -143 -177 -157
-93 -112 117 59 -161 -142 -176 -156
-94 -107 118 64 -156 -138 -172 -154
-93 -102 117 68 -151 -132 -166 -151
-88 -99 113 68 -145 -128 -161 -145
-83 -98 107 68 -137 -122 -156 -137
-83 -100 100 68 -133 -115 -151 -132
-83 -98 93 68 -132 -107 -146 -132
-77 -92 86 67 -130 -101 -142 -133
-68 -83 78 68 -122 -93 -137 -127
-63 -77 70 73 -110 -85 -131 -117
-59 -73 63 78 -98 -73 -122 -107
-49 -67 54 81 -92 -61 -113 -101
-29 -54 39 83 -93 -44 -102 -93
-4 -45 22 97 -90 -28 -94 -85
20 -44 10 127 -73 -10 -83 -78
41 -51 5 169 -43 7 -68 -73
63 -49 -5 205 -5 34 -44 -59
84 -33 -20 234 57 75 -14 -33
98 -5 -34 264 151 127 15 -5
104 30 -44 295 258 178 39 10
112 78 -68 307 332 229 68 24
138 144 -118 299 383 308 125 65
195 220 -185 293 468 444 229 151
278 292 -250 316 624 643 378 273
366 361 -312 346 791 874 551 405
439 438 -384 323 885 1101 731 537
488 527 -468 200 878 1309 908 673
522 620 -555 -12 822 1517 1091 820
551 708 -634 -264 752 1733 1275 961
574 793 -709 -510 650 1922 1440 1084
