88 0 264 410 332 195 98 0
100 0 289 462 374 221 111 -3
88 -0 239 405 327 195 98 -10
81 -0 206 374 301 181 91 -17
88 0 215 400 322 195 98 -20
96 2 221 414 335 206 105 -15
98 5 205 395 322 205 107 -5
101 8 193 383 315 207 110 5
107 10 195 390 322 215 117 10
109 11 193 389 321 213 120 11
107 10 181 371 307 200 117 10
106 9 170 356 296 188 115 9
107 10 166 351 293 185 117 10
109 12 166 346 288 185 120 12
112 15 166 337 278 185 122 15
115 17 167 329 269 185 125 18
117 20 166 322 264 185 127 20
117 25 160 314 259 185 128 22
117 34 151 303 254 185 127 24
117 43 143 293 250 186 127 27
117 49 137 283 244 185 127 29
117 50 132 273 235 181 127 29
117 49 127 264 224 176 127 29
117 48 122 254 214 171 127 29
117 49 117 244 205 166 127 29
116 53 110 233 197 161 127 29
117 59 102 220 190 156 127 29
119 65 93 207 183 151 128 29
117 68 88 195 176 146 127 29
108 65 87 183 166 140 123 29
93 59 88 171 156 132 117 29
78 53 89 158 146 124 111 29
68 49 88 146 137 117 107 29
63 48 87 138 129 113 106 28
59 49 88 132 122 112 107 29
55 50 89 125 115 111 108 30
49 49 88 117 107 107 107 29
42 45 82 106 96 97 101 22
34 39 73 93 83 83 93 10
26 33 64 79 70 69 85 -2
20 29 59 68 59 59 78 -10
15 26 56 58 49 51 71 -16
10 24 54 49 39 44 63 -20
5 22 51 38 29 36 55 -24
0 20 49 29 20 29 49 -29
-3 16 48 22 12 22 44 -34
-5 10 49 15 5 15 39 -39
-7 4 49 7 -3 7 34 -44
-10 -0 49 0 -10 0 29 -49
-15 -3 49 -5 -17 -5 25 -54
-20 -5 49 -10 -24 -10 20 -59
-25 -8 50 -16 -33 -15 15 -64
-29 -10 49 -20 -39 -20 10 -68
-30 -11 45 -21 -41 -23 7 -69
-29 -10 39 -20 -39 -24 5 -68
-28 -9 32 -19 -38 -26 3 -67
-29 -10 29 -20 -39 -29 0 -68
-33 -14 29 -22 -39 -32 -3 -72
-39 -20 29 -24 -39 -34 -5 -78
-45 -26 28 -27 -39 -37 -8 -84
-49 -29 29 -29 -39 -39 -10 -88
-50 -30 33 -29 -39 -40 -11 -89
-49 -29 39 -29 -39 -39 -10 -88
-49 -29 45 -29 -39 -39 -9 -87
-49 -29 49 -29 -39 -39 -10 -88
-49 -29 54 -29 -39 -39 -12 -90
-49 -29 63 -29 -39 -39 -15 -93
-49 -29 73 -29 -39 -39 -18 -96
-49 -29 78 -29 -39 -39 -20 -98
-49 -29 75 -27 -39 -39 -20 -98
-49 -29 68 -24 -39 -39 -20 -98
-49 -29 62 -21 -39 -39 -20 -98
-49 -29 59 -20 -39 -39 -20 -98
-51 -29 59 -20 -41 -41 -21 -99
-54 -29 59 -20 -44 -44 -24 -102
-57 -29 59 -20 -47 -47 -27 -105
-59 -29 59 -20 -49 -49 -29 -107
-59 -29 59 -20 -49 -49 -30 -108
-59 -29 59 -20 -49 -49 -29 -107
-59 -29 59 -20 -49 -49 -28 -106
-59 -29 59 -20 -49 -49 -29 -107
-59 -31 59 -20 -49 -51 -31 -109
-59 -34 59 -20 -49 -54 -34 -112
-59 -37 59 -20 -49 -57 -37 -115
-59 -39 59 -20 -49 -59 -39 -117
-59 -39 57 -20 -49 -59 -39 -117
-59 -39 54 -20 -49 -59 -39 -117
-59 -39 51 -20 -49 -59 -39 -117
-59 -39 49 -20 -49 -59 -39 -117
-56 -39 49 -20 -49 -59 -39 -117
-49 -39 49 -20 -49 -59 -39 -117
-42 -39 49 -20 -49 -59 -39 -117
-39 -39 49 -20 -49 -59 -39 -117
-44 -39 47 -21 -51 -59 -39 -119
-54 -39 44 -24 -54 -59 -39 -122
-63 -39 41 -27 -57 -59 -39 -125
-68 -39 39 -29 -59 -59 -39 -127
-69 -39 39 -30 -60 -59 -39 -127
-68 -39 39 -29 -59 -59 -39 -127
-68 -39 39 -28 -58 -59 -39 -126
-68 -39 39 -29 -59 -59 -39 -127
-68 -39 42 -33 -62 -60 -41 -129
-68 -39 49 -39 -68 -63 -44 -132
-68 -39 57 -45 -74 -66 -47 -135
-68 -39 59 -49 -78 -68 -49 -137
-66 -39 52 -52 -79 -69 -50 -137
-63 -39 39 -54 -78 -68 -49 -137
-60 -39 27 -57 -77 -67 -48 -136
-59 -39 20 -59 -78 -68 -49 -137
-59 -41 16 -61 -82 -72 -53 -140
-59 -44 10 -63 -88 -78 -59 -146
-59 -47 3 -65 -94 -84 -65 -153
-59 -49 -0 -68 -98 -88 -68 -156
-59 -49 3 -71 -100 -89 -65 -152
-59 -49 10 -73 -102 -88 -59 -142
-59 -49 17 -75 -105 -88 -52 -132
-59 -49 20 -78 -107 -88 -49 -127
-59 -49 20 -80 -108 -88 -49 -130
-59 -49 20 -83 -107 -88 -49 -137
-59 -49 21 -86 -106 -88 -49 -143
-59 -49 20 -88 -107 -88 -49 -146
-60 -49 16 -90 -109 -90 -51 -146
-63 -49 10 -93 -112 -93 -54 -146
-66 -49 4 -96 -115 -96 -57 -146
-68 -49 0 -98 -117 -98 -59 -146
-69 -49 -1 -99 -118 -98 -59 -146
-68 -49 -0 -98 -117 -98 -59 -146
-67 -49 0 -98 -116 -98 -59 -146
-68 -49 0 -98 -117 -98 -59 -146
-71 -51 -0 -99 -119 -99 -60 -146
-78 -54 -0 -102 -122 -102 -63 -146
-85 -57 0 -105 -125 -105 -66 -146
-88 -59 0 -107 -127 -107 -68 -146
-85 -59 0 -108 -127 -107 -68 -146
-78 -59 -0 -107 -127 -107 -68 -146
-71 -59 -0 -106 -126 -107 -68 -146
-68 -59 0 -107 -127 -107 -68 -146
-67 -60 2 -109 -129 -107 -68 -146
-68 -63 5 -112 -132 -107 -68 -146
-68 -66 8 -115 -135 -107 -68 -146
-68 -68 10 -117 -137 -107 -68 -146
-68 -68 10 -117 -137 -108 -69 -146
-68 -68 10 -117 -137 -107 -68 -146
-68 -68 10 -117 -137 -106 -67 -146
-68 -68 10 -117 -137 -107 -68 -146
-67 -68 9 -117 -137 -110 -71 -146
-68 -68 5 -117 -137 -112 -73 -146
-69 -68 -0 -117 -137 -112 -73 -145
-68 -68 -5 -117 -137 -112 -73 -146
-66 -68 -10 -117 -139 -114 -76 -147
-68 -68 -15 -117 -142 -117 -78 -146
-78 -70 -22 -117 -145 -117 -78 -144
-88 -73 -29 -117 -146 -117 -78 -146
-91 -75 -32 -117 -145 -119 -79 -152
-88 -73 -29 -117 -146 -122 -78 -156
-83 -70 -23 -116 -147 -123 -75 -152
-78 -68 -20 -117 -146 -122 -73 -146
-75 -68 -21 -120 -144 -121 -74 -144
-73 -68 -24 -122 -146 -122 -73 -146
-73 -68 -25 -122 -153 -125 -71 -149
-73 -68 -24 -122 -156 -127 -73 -151
-69 -69 -23 -121 -151 -125 -80 -152
-63 -68 -20 -117 -142 -117 -83 -151
-57 -62 -15 -109 -136 -107 -75 -146
-54 -54 -10 -102 -132 -98 -63 -142
-55 -50 -6 -99 -126 -94 -59 -141
-59 -49 -5 -98 -122 -93 -63 -142
-63 -48 -4 -96 -120 -92 -66 -143
-59 -44 0 -93 -117 -88 -63 -142
-47 -37 4 -90 -109 -83 -56 -140
-34 -29 5 -88 -102 -78 -49 -137
-27 -22 5 -84 -100 -73 -44 -132
-24 -15 10 -78 -98 -68 -39 -127
-23 -9 21 -70 -91 -61 -34 -124
-24 -5 34 -63 -83 -54 -29 -122
-24 -4 43 -57 -78 -48 -25 -117
-20 -5 49 -54 -73 -44 -20 -112
-10 -3 55 -52 -65 -42 -14 -109
-0 5 63 -49 -59 -39 -10 -107
5 15 72 -43 -58 -33 -7 -105
10 20 78 -34 -59 -24 -5 -102
19 19 79 -25 -54 -16 -1 -98
29 20 73 -20 -44 -10 5 -93
33 29 64 -17 -37 -7 11 -87
29 39 59 -15 -34 -5 15 -83
25 42 59 -14 -33 -4 17 -82
24 39 59 -15 -34 -5 15 -83
25 36 56 -18 -36 -6 12 -84
24 34 54 -20 -39 -5 10 -83
22 30 54 -21 -39 -3 11 -82
24 24 49 -24 -39 -5 10 -83
32 22 36 -31 -40 -11 9 -84
44 24 20 -39 -44 -15 10 -83
50 27 7 -49 -52 -16 14 -81
44 24 -5 -63 -68 -20 10 -83
30 16 -18 -83 -89 -32 -5 -92
20 5 -29 -102 -107 -49 -24 -102
19 -5 -34 -112 -117 -60 -34 -104
20 -15 -34 -112 -122 -63 -34 -98
16 -23 -35 -110 -125 -61 -32 -89
10 -29 -39 -112 -127 -59 -34 -88
4 -34 -42 -117 -129 -61 -40 -98
-5 -44 -39 -122 -132 -68 -49 -117
-21 -58 -32 -123 -136 -77 -58 -138
-39 -68 -24 -122 -137 -83 -63 -151
-50 -67 -20 -121 -134 -84 -65 -151
-54 -59 -20 -122 -132 -83 -68 -142
-57 -56 -22 -124 -136 -83 -73 -132
-63 -63 -24 -127 -142 -88 -78 -132
-71 -78 -23 -130 -143 -94 -81 -143
-78 -93 -20 -132 -142 -98 -83 -161
-81 -104 -16 -133 -143 -100 -88 -176
-83 -107 -15 -137 -146 -102 -93 -181
-83 -103 -17 -144 -149 -105 -95 -177
-83 -98 -20 -151 -151 -107 -93 -171
-84 -96 -21 -154 -154 -105 -92 -167
-88 -98 -20 -151 -156 -102 -93 -166
-95 -101 -21 -147 -156 -99 -94 -166
-102 -102 -24 -146 -156 -98 -93 -166
-104 -102 -27 -147 -156 -97 -91 -166
-102 -102 -24 -146 -156 -98 -93 -166
-99 -105 -21 -145 -155 -102 -98 -165
-98 -112 -24 -146 -156 -107 -102 -166
-99 -119 -34 -152 -159 -109 -103 -168
-102 -122 -39 -156 -161 -107 -102 -171
-106 -117 -35 -155 -161 -104 -101 -172
-107 -107 -29 -151 -161 -102 -98 -171
-107 -97 -28 -148 -162 -102 -95 -170
-107 -93 -29 -142 -161 -102 -93 -171
-111 -96 -28 -138 -159 -105 -94 -173
-117 -102 -29 -137 -156 -107 -93 -171
-123 -110 -32 -141 -157 -110 -93 -169
-127 -117 -29 -137 -156 -112 -93 -171
-128 -126 -16 -124 -152 -116 -101 -183
-127 -137 5 -107 -142 -117 -112 -195
-138 -158 41 -88 -133 -125 -132 -213
-171 -190 102 -54 -122 -142 -161 -244
-222 -232 185 3 -104 -164 -202 -293
-264 -264 264 73 -73 -171 -239 -342
-286 -276 332 152 -23 -159 -263 -376
-293 -264 405 244 49 -132 -268 -390
-292 -226 492 354 142 -91 -251 -382
-264 -156 551 449 239 -24 -200 -337
-190 -57 543 503 321 73 -113 -253
-78 54 473 522 386 190 5 -142
43 169 399 556 470 326 145 -22
161 288 361 639 605 488 303 107
302 405 350 768 783 678 476 254
493 508 322 898 952 874 659 420
722 623 262 993 1094 1080 866 614
937 800 176 1036 1236 1328 1128 854
1106 1053 72 1040 1410 1644 1455 1149
1231 1314 -63 1006 1577 1973 1802 1460
1317 1505 -221 907 1645 2204 2082 1721
1348 1602 -371 708 1548 2246 2226 1875
1313 1610 -497 427 1304 2100 2213 1908
1236 1524 -625 107 972 1821 2065 1836
1149 1347 -783 -238 583 1461 1825 1690
1050 1128 -947 -630 142 1040 1533 1494
910 928 -1066 -1040 -319 587 1216 1266
727 771 -1109 -1363 -717 171 898 1026
544 638 -1092 -1515 -977 -132 619 803
405 503 -1050 -1533 -1104 -312 410 620
315 359 -1013 -1517 -1166 -432 253 466
239 205 -997 -1524 -1226 -561 93 307
151 57 -995 -1538 -1292 -711 -84 143
59 -63 -982 -1533 -1338 -830 -229 5
-12 -143 -946 -1500 -1341 -879 -304 -83
-54 -195 -903 -1441 -1299 -864 -332 -142
-74 -236 -872 -1366 -1235 -832 -361 -198
-78 -264 -844 -1289 -1172 -805 -390 -244
-74 -270 -803 -1212 -1110 -775 -394 -263
-73 -259 -737 -1114 -1026 -717 -371 -259
-91 -247 -651 -984 -912 -638 -347 -256
-122 -239 -551 -839 -786 -556 -327 -259
-149 -237 -447 -711 -676 -490 -305 -264
-156 -234 -351 -600 -576 -429 -273 -259
-149 -231 -272 -496 -477 -366 -241 -250
-137 -220 -210 -395 -381 -298 -205 -234
-132 -204 -159 -311 -307 -241 -169 -217
-132 -185 -117 -254 -259 -200 -142 -205
-136 -169 -84 -216 -224 -171 -134 -205
-137 -156 -63 -185 -190 -146 -132 -205
-134 -145 -47 -154 -159 -126 -124 -199
-127 -137 -34 -132 -142 -117 -112 -190
-123 -135 -20 -119 -134 -115 -108 -188
-127 -137 -10 -112 -127 -112 -112 -190
-138 -139 -2 -101 -114 -104 -116 -191
-146 -137 5 -88 -107 -98 -112 -190
-144 -131 15 -77 -107 -96 -104 -190
-137 -127 24 -73 -107 -93 -98 -190
-134 -126 29 -67 -96 -83 -97 -187
-137 -127 29 -59 -83 -73 -98 -185
-139 -129 27 -47 -75 -70 -100 -186
-137 -132 24 -39 -73 -73 -102 -190
-136 -136 21 -33 -66 -74 -105 -191
-137 -137 20 -29 -59 -73 -107 -190
-131 -133 25 -25 -55 -72 -106 -189
-112 -127 34 -24 -54 -68 -102 -190
-89 -122 44 -23 -50 -60 -99 -190
-83 -122 49 -20 -44 -54 -98 -190
-100 -123 51 -13 -41 -54 -98 -191
-127 -122 54 -5 -39 -54 -98 -190
-143 -119 60 -1 -34 -50 -96 -187
-142 -117 63 0 -29 -44 -93 -185
-132 -115 60 2 -27 -43 -92 -182
-122 -112 54 5 -29 -44 -93 -176
-113 -109 52 8 -29 -43 -95 -167
-107 -107 54 10 -24 -39 -93 -161
-110 -107 54 14 -17 -36 -87 -163
-122 -107 49 20 -10 -34 -78 -171
-135 -105 41 26 -4 -31 -71 -176
-137 -102 39 29 0 -29 -68 -176
-126 -99 47 28 2 -27 -68 -174
-112 -98 63 29 -0 -24 -68 -171
-104 -96 77 35 -1 -19 -68 -168
-102 -93 83 44 5 -15 -68 -166
-102 -91 81 50 16 -14 -67 -165
-102 -93 78 54 24 -10 -63 -166
-101 -95 77 57 27 -2 -58 -165
-98 -93 78 63 29 5 -54 -161
-92 -87 78 69 34 6 -53 -155
-88 -83 78 73 39 5 -54 -151
-91 -83 78 75 41 6 -55 -150
-98 -83 78 78 44 10 -54 -151
-99 -79 79 82 52 16 -51 -150
-88 -73 83 88 63 24 -44 -146
-69 -70 89 95 69 33 -37 -142
-54 -68 93 102 73 39 -34 -142
-56 -65 94 108 79 39 -33 -143
-73 -63 93 112 88 39 -29 -142
-93 -63 94 116 96 45 -21 -137
-102 -63 98 122 102 54 -15 -132
-94 -59 105 131 108 60 -14 -130
-78 -54 117 142 117 63 -10 -127
-66 -52 130 150 126 67 -1 -122
-63 -54 137 156 132 73 5 -117
-64 -54 136 160 134 79 3 -117
-63 -49 132 166 137 83 0 -122
-57 -43 130 172 143 87 4 -125
-49 -39 132 176 151 93 10 -122
-42 -38 134 181 159 100 11 -116
-39 -39 137 190 166 107 10 -112
-38 -39 140 203 173 113 13 -111
-34 -39 142 215 181 117 20 -112
-30 -38 139 220 188 123 22 -112
-29 -34 132 224 195 132 20 -112
-31 -28 128 232 204 143 21 -111
-29 -24 132 244 215 151 29 -107
-19 -22 145 256 226 155 41 -100
-10 -20 161 268 239 161 49 -93
-8 -16 175 280 253 172 52 -87
-10 -15 185 293 264 185 54 -83
-6 -16 190 302 271 194 57 -80
5 -15 190 307 278 200 63 -78
18 -8 187 310 286 205 67 -78
29 -0 185 317 293 210 68 -78
36 1 185 328 298 214 67 -76
39 -5 185 337 303 220 68 -73
38 -10 184 342 308 228 72 -70
39 -10 185 346 312 234 78 -68
45 -7 189 351 314 236 85 -67
54 -5 195 356 317 239 93 -63
62 -3 197 359 324 248 100 -56
68 -0 195 361 332 259 102 -49
70 3 193 365 336 265 100 -45
68 5 195 371 337 264 102 -44
65 5 200 375 338 262 109 -43
68 5 200 376 342 264 117 -39
78 8 196 378 347 271 120 -33
88 15 195 381 351 278 122 -29
93 24 199 384 354 282 126 -26
93 29 200 386 356 283 132 -24
92 27 195 385 355 282 135 -21
93 20 190 381 351 283 137 -20
95 14 190 376 347 285 141 -21
98 15 190 371 346 288 146 -20
104 20 183 366 346 290 149 -16
112 24 171 361 346 293 151 -10
119 25 161 356 342 295 154 -6
122 24 151 351 337 293 156 -5
123 24 138 345 330 287 155 -3
122 24 127 337 322 283 151 -0
123 25 124 327 313 283 147 1
127 29 127 317 307 283 146 0
133 36 129 309 305 278 146 -1
137 39 127 303 303 273 146 0
134 38 123 297 298 271 145 3
127 39 122 288 288 273 146 5
123 48 121 278 277 272 150 4
127 59 117 268 268 268 156 5
135 62 108 260 262 266 158 9
137 59 98 254 259 268 156 15
130 57 91 247 256 270 152 17
122 59 88 239 249 264 151 15
118 61 85 228 237 251 152 12
117 59 78 215 224 239 151 10
113 58 69 203 214 234 148 10
107 63 63 195 210 234 146 10
101 71 62 190 207 232 147 11
93 73 63 181 200 224 146 15
81 64 59 166 190 213 140 18
68 54 49 151 181 205 132 15
58 51 39 140 174 200 127 8
54 54 34 132 166 195 127 5
55 56 33 123 156 189 126 8
59 54 34 112 146 181 122 10
62 51 33 101 135 174 115 6
59 49 29 93 122 166 107 0
46 43 25 84 106 156 100 -2
24 34 24 73 93 142 93 -5
4 26 23 60 86 129 86 -15
-5 24 20 49 83 122 78 -29
0 26 13 39 77 118 70 -36
10 24 5 29 68 112 63 -34
14 17 -1 18 58 100 58 -32
10 10 -5 10 49 88 54 -39
0 7 -8 7 40 80 49 -51
-10 5 -10 5 34 73 44 -59
-17 2 -11 -1 31 65 38 -61
-20 0 -10 -10 29 59 34 -63
-21 1 -9 -18 27 56 30 -68
-24 -0 -10 -20 24 54 24 -73
-32 -5 -11 -19 20 47 16 -76
-39 -10 -10 -20 15 39 10 -78
-41 -11 -5 -24 9 34 8 -82
-39 -10 -0 -29 5 34 10 -88
-38 -12 3 -30 5 33 12 -90
-39 -15 5 -29 5 29 10 -88
-41 -18 7 -28 3 24 3 -86
-44 -20 10 -29 0 20 -5 -88
-47 -25 11 -30 -1 18 -9 -94
-49 -29 10 -29 -0 20 -10 -98
-48 -30 8 -26 1 24 -10 -96
-44 -29 5 -24 0 29 -10 -88
-41 -28 2 -24 -0 31 -10 -80
-39 -29 0 -24 -0 29 -10 -78
-43 -29 -1 -23 0 23 -12 -83
-54 -29 0 -20 0 15 -15 -93
-66 -29 0 -16 -1 7 -18 -102
-68 -29 -0 -15 -0 5 -20 -107
-60 -29 1 -16 2 10 -21 -110
-54 -29 5 -15 5 20 -20 -112
-57 -30 11 -12 8 28 -19 -113
-63 -29 15 -10 10 29 -20 -112
-64 -28 15 -10 11 22 -26 -111
-63 -29 15 -10 10 10 -34 -112
-68 -31 17 -10 7 0 -39 -116
-73 -29 20 -10 5 0 -39 -117
-68 -23 18 -12 4 6 -34 -113
-54 -20 10 -15 5 10 -29 -107
-43 -23 0 -16 5 6 -30 -104
-44 -29 -5 -15 5 0 -39 -107
-51 -31 -5 -15 5 -2 -48 -112
-54 -29 -5 -15 5 -0 -49 -117
-49 -28 -7 -15 5 0 -41 -119
-44 -29 -10 -15 5 0 -34 -117
-47 -29 -12 -15 4 2 -36 -114
-59 -29 -10 -15 5 5 -44 -112
-72 -31 -6 -15 7 6 -48 -112
-78 -34 0 -15 10 5 -44 -112
-74 -35 6 -15 11 5 -38 -111
-63 -34 10 -15 10 5 -34 -112
-51 -32 11 -15 9 5 -33 -114
-44 -29 10 -15 10 5 -34 -117
-47 -27 10 -16 11 5 -36 -118
-59 -29 10 -15 10 5 -39 -117
-74 -34 10 -14 6 3 -43 -117
-83 -39 10 -15 -0 0 -44 -117
-81 -40 9 -21 -6 -3 -43 -117
-73 -39 5 -29 -10 -5 -44 -117
-66 -38 -0 -34 -10 -7 -49 -117
-63 -39 -5 -34 -10 -10 -54 -117
-63 -40 -6 -33 -12 -13 -57 -117
-63 -39 -5 -34 -15 -15 -59 -117
-63 -38 -4 -37 -18 -16 -61 -117
-63 -39 -5 -39 -20 -15 -59 -117
-63 -40 -7 -39 -21 -14 -53 -116
-63 -39 -10 -39 -20 -15 -49 -117
-62 -38 -13 -41 -19 -19 -52 -119
-63 -39 -15 -44 -20 -24 -59 -122
-66 -44 -16 -46 -22 -30 -62 -123
-68 -49 -15 -49 -24 -34 -63 -122
-68 -51 -14 -54 -24 -37 -65 -122
-68 -49 -15 -59 -24 -39 -68 -122
-68 -47 -18 -60 -26 -41 -72 -122
-68 -49 -20 -59 -29 -44 -78 -122
-68 -52 -20 -60 -31 -47 -87 -122
-68 -54 -20 -63 -34 -49 -93 -122
-70 -52 -24 -66 -39 -49 -89 -122
-73 -49 -29 -68 -44 -49 -78 -122
-74 -48 -34 -70 -47 -51 -69 -121
-73 -49 -39 -73 -49 -54 -68 -122
-72 -50 -46 -76 -51 -57 -72 -124
-73 -49 -54 -78 -54 -59 -78 -127
-75 -47 -61 -79 -57 -61 -84 -130
-78 -49 -63 -78 -59 -63 -88 -132
-80 -52 -57 -77 -61 -66 -89 -133
-78 -49 -44 -78 -63 -68 -88 -132
-73 -42 -30 -81 -63 -68 -87 -131
-68 -39 -24 -83 -63 -68 -88 -132
-68 -47 -29 -83 -63 -69 -89 -136
-73 -59 -34 -83 -63 -73 -88 -142
-79 -65 -31 -83 -63 -77 -87 -146
-83 -63 -24 -83 -63 -78 -88 -146
-83 -60 -20 -83 -63 -75 -91 -143
-83 -59 -20 -83 -63 -73 -93 -137
-83 -59 -22 -85 -63 -74 -91 -131
-83 -59 -24 -88 -63 -78 -88 -127
-81 -60 -31 -92 -62 -81 -89 -128
-78 -63 -44 -98 -63 -83 -93 -132
-77 -66 -59 -103 -65 -86 -97 -136
-78 -68 -68 -107 -68 -88 -98 -137
-78 -68 -66 -108 -69 -89 -98 -135
-78 -68 -54 -107 -68 -88 -98 -132
-78 -68 -41 -107 -68 -88 -98 -129
-78 -68 -39 -107 -68 -88 -98 -127
-78 -68 -49 -107 -68 -88 -98 -127
-78 -68 -59 -107 -68 -88 -98 -127
-76 -68 -62 -107 -68 -88 -98 -126
-73 -68 -63 -107 -68 -88 -98 -127
-69 -67 -66 -107 -70 -88 -100 -128
-68 -68 -68 -107 -73 -88 -102 -127
-72 -71 -64 -107 -77 -87 -104 -125
-78 -73 -59 -107 -78 -88 -107 -127
-84 -71 -60 -105 -78 -91 -109 -133
-88 -63 -63 -102 -78 -93 -107 -137
-89 -53 -62 -99 -79 -93 -103 -133
-88 -49 -59 -98 -78 -93 -102 -127
-88 -52 -58 -100 -76 -94 -103 -125
-93 -59 -59 -102 -78 -98 -102 -127
-100 -65 -58 -102 -85 -103 -100 -130
-102 -68 -54 -102 -88 -107 -102 -132
-92 -70 -51 -103 -84 -109 -109 -131
-73 -68 -49 -102 -78 -107 -112 -127
-54 -62 -45 -98 -75 -103 -104 -119
-44 -54 -39 -93 -73 -98 -93 -112
-47 -49 -35 -90 -68 -95 -91 -110
-59 -49 -34 -88 -63 -93 -98 -112
-70 -49 -32 -86 -61 -91 -103 -113
-68 -44 -29 -83 -59 -88 -102 -112
-51 -35 -27 -81 -53 -85 -97 -110
-29 -24 -29 -78 -49 -83 -93 -107
-12 -13 -31 -74 -49 -81 -91 -102
-5 -5 -29 -68 -49 -78 -88 -98
-7 1 -22 -61 -42 -73 -85 -95
-15 5 -15 -54 -34 -68 -83 -93
-21 6 -12 -48 -29 -64 -81 -89
-20 5 -10 -44 -24 -63 -78 -83
-12 7 -6 -42 -16 -63 -73 -78
-5 15 -0 -39 -10 -63 -68 -73
-3 25 5 -33 -9 -60 -65 -68
0 29 10 -24 -10 -54 -63 -63
9 27 17 -15 -5 -46 -59 -59
20 29 24 -10 5 -39 -54 -54
24 39 28 -7 12 -35 -48 -48
20 49 29 -5 15 -34 -44 -44
16 52 28 -4 16 -33 -42 -42
15 49 24 -5 15 -34 -44 -44
16 46 18 -8 13 -35 -47 -45
15 44 15 -10 10 -34 -49 -44
15 40 13 -12 10 -32 -48 -41
20 34 5 -15 10 -34 -49 -39
31 32 -11 -21 9 -39 -51 -37
44 34 -29 -29 5 -44 -49 -34
50 37 -43 -39 -4 -45 -45 -31
44 34 -54 -54 -20 -49 -49 -34
30 26 -67 -74 -41 -61 -64 -43
20 15 -78 -93 -59 -78 -83 -54
17 5 -81 -102 -69 -92 -93 -59
15 -5 -78 -102 -73 -98 -93 -59
9 -14 -76 -100 -76 -98 -91 -58
0 -20 -78 -102 -78 -98 -93 -59
-9 -25 -78 -107 -80 -102 -99 -64
-24 -34 -73 -112 -83 -112 -107 -73
-47 -48 -63 -113 -87 -124 -116 -84
-68 -59 -54 -112 -88 -132 -122 -93
-75 -61 -48 -111 -87 -134 -124 -97
-68 -59 -44 -112 -88 -132 -127 -98
-61 -62 -43 -114 -95 -132 -132 -99
-63 -73 -44 -117 -102 -137 -137 -102
-74 -85 -48 -118 -103 -143 -140 -107
-88 -93 -54 -117 -102 -146 -142 -112
-98 -97 -59 -115 -103 -148 -146 -113
-102 -98 -63 -117 -107 -151 -151 -112
-102 -97 -66 -124 -110 -156 -153 -111
-102 -98 -68 -132 -112 -161 -151 -112
-104 -102 -69 -135 -115 -162 -150 -115
-107 -107 -68 -132 -117 -161 -151 -117
-108 -111 -68 -128 -117 -158 -152 -117
-102 -112 -68 -127 -117 -156 -151 -117
-91 -112 -67 -128 -118 -155 -149 -117
-83 -112 -63 -127 -117 -156 -151 -117
-85 -112 -60 -126 -115 -161 -156 -117
-98 -112 -63 -127 -112 -166 -161 -117
-113 -112 -73 -133 -112 -168 -162 -119
-122 -112 -78 -137 -112 -166 -161 -122
-123 -112 -74 -138 -112 -163 -161 -123
-117 -112 -68 -137 -112 -161 -161 -122
-110 -112 -67 -137 -114 -161 -161 -121
-107 -112 -68 -132 -112 -161 -161 -122
-111 -112 -67 -127 -109 -162 -164 -124
-117 -112 -68 -127 -107 -161 -166 -122
-124 -114 -71 -132 -109 -162 -169 -120
-127 -117 -68 -127 -107 -161 -171 -122
-128 -126 -50 -107 -98 -162 -179 -134
-127 -137 -20 -78 -83 -161 -190 -146
-138 -158 26 -47 -69 -167 -210 -164
-171 -190 93 -5 -54 -181 -239 -195
-222 -233 176 58 -30 -200 -279 -246
-264 -268 254 137 10 -205 -317 -298
-286 -284 323 225 69 -191 -342 -337
-293 -273 395 322 146 -161 -346 -351
-288 -234 475 429 239 -116 -324 -338
-254 -161 522 517 332 -44 -268 -288
-175 -59 502 566 410 58 -177 -199
-59 54 425 581 473 181 -54 -83
67 171 348 614 560 328 101 50
195 293 307 698 703 508 283 200
348 413 292 830 890 717 481 367
542 517 264 956 1060 922 678 547
758 629 206 1030 1185 1128 893 753
952 800 122 1040 1304 1377 1167 1011
1102 1047 18 1012 1458 1698 1510 1326
1211 1304 -112 956 1607 2021 1860 1646
1277 1492 -258 836 1645 2217 2118 1894
1280 1582 -390 605 1499 2197 2221 2021
1215 1583 -500 287 1203 1988 2170 2029
1119 1494 -615 -49 844 1675 1997 1943
1023 1323 -759 -370 470 1313 1743 1790
917 1114 -903 -708 68 903 1436 1587
768 924 -1001 -1067 -357 459 1102 1351
581 771 -1031 -1363 -737 44 771 1104
410 640 -1009 -1510 -994 -262 490 875
298 508 -961 -1528 -1119 -444 283 683
234 367 -917 -1510 -1178 -566 128 520
171 215 -898 -1514 -1236 -698 -34 356
86 63 -905 -1532 -1306 -848 -215 191
-5 -63 -908 -1533 -1363 -966 -366 54
-73 -149 -887 -1505 -1376 -1014 -447 -34
-112 -205 -854 -1450 -1338 -1001 -478 -93
-137 -247 -835 -1381 -1272 -969 -505 -147
-156 -273 -825 -1314 -1206 -942 -527 -190
-167 -279 -802 -1247 -1142 -913 -525 -206
-171 -268 -747 -1153 -1055 -854 -498 -200
-179 -256 -666 -1018 -936 -771 -472 -195
-190 -249 -571 -864 -805 -683 -449 -195
-199 -247 -473 -727 -690 -612 -424 -197
-195 -244 -381 -610 -586 -547 -390 -190
-180 -240 -303 -503 -483 -481 -356 -180
-161 -229 -239 -400 -381 -410 -317 -161
-148 -214 -187 -313 -301 -351 -279 -141
-142 -195 -146 -254 -249 -307 -249 -127
-141 -180 -116 -212 -213 -274 -236 -126
-137 -166 -98 -176 -181 -244 -229 -127
-128 -155 -85 -138 -150 -218 -216 -121
-117 -146 -73 -112 -132 -205 -200 -112
-112 -144 -59 -99 -122 -202 -195 -109
-117 -146 -49 -93 -112 -200 -200 -112
-129 -148 -41 -81 -97 -192 -204 -113
-137 -146 -34 -68 -88 -185 -200 -112
-134 -139 -24 -58 -86 -183 -191 -110
-127 -132 -15 -54 -83 -181 -185 -107
-124 -128 -11 -48 -69 -171 -184 -102
-127 -127 -10 -39 -54 -161 -185 -98
-132 -127 -6 -28 -46 -156 -185 -97
-137 -127 0 -20 -44 -156 -185 -98
-142 -128 7 -14 -37 -154 -185 -96
-146 -127 10 -10 -29 -151 -185 -93
-143 -123 12 -6 -25 -149 -184 -90
-127 -117 15 -5 -24 -146 -181 -88
-108 -113 19 -4 -20 -138 -177 -85
-102 -112 20 0 -15 -132 -176 -83
-114 -113 21 7 -12 -131 -176 -83
-132 -112 24 15 -10 -132 -176 -83
-138 -109 31 19 -5 -128 -174 -80
-132 -107 34 20 -0 -122 -171 -78
-123 -107 29 20 -0 -121 -170 -78
-117 -107 20 20 -5 -122 -171 -78
-112 -107 14 20 -8 -121 -173 -76
-107 -107 15 20 -5 -117 -171 -73
-105 -107 19 23 2 -114 -164 -72
-107 -107 20 29 10 -112 -156 -73
-109 -105 19 36 16 -109 -149 -71
-107 -102 20 39 20 -107 -146 -68
-101 -100 24 38 22 -105 -144 -65
-98 -98 29 39 20 -102 -142 -63
-99 -96 33 45 19 -97 -139 -61
-102 -93 34 54 24 -93 -137 -59
-103 -91 35 60 35 -92 -135 -58
-102 -93 39 63 44 -88 -132 -59
-101 -95 45 67 47 -80 -127 -58
-98 -93 49 73 49 -73 -122 -54
-92 -87 51 79 54 -72 -121 -48
-88 -83 54 83 59 -73 -122 -44
-91 -83 57 85 60 -72 -123 -43
-98 -83 59 88 63 -68 -122 -44
-101 -79 60 92 72 -64 -119 -43
-93 -73 63 98 83 -59 -112 -39
-77 -70 69 105 90 -53 -105 -35
-63 -68 73 112 93 -49 -102 -34
-58 -65 70 116 96 -49 -103 -35
-63 -63 63 117 102 -49 -102 -34
-71 -63 58 117 107 -43 -97 -29
-73 -63 59 122 112 -34 -93 -24
-68 -59 63 131 118 -27 -92 -22
-59 -54 68 142 127 -24 -88 -20
-54 -52 73 150 136 -20 -79 -15
-54 -54 78 156 142 -15 -73 -10
-58 -54 82 162 145 -11 -73 -8
-63 -49 88 171 151 -10 -73 -10
-64 -43 96 179 160 -9 -66 -10
-59 -39 102 185 171 -5 -59 -5
-49 -38 105 190 179 2 -58 1
-39 -39 107 200 185 10 -59 5
-31 -39 110 213 192 16 -55 6
-24 -39 112 224 200 20 -49 5
-20 -38 112 229 207 25 -47 5
-20 -34 112 234 215 34 -49 5
-23 -28 115 242 224 46 -47 6
-20 -24 122 254 234 54 -39 10
-10 -23 127 264 242 56 -29 17
-0 -24 127 273 249 59 -24 24
2 -24 125 282 256 67 -24 30
0 -24 127 293 264 78 -24 34
2 -25 134 302 271 87 -21 37
10 -24 142 307 278 93 -15 39
21 -17 146 310 286 98 -11 39
29 -10 146 317 293 102 -10 39
31 -8 146 327 299 106 -11 40
24 -10 146 337 307 112 -10 44
13 -12 145 342 315 120 -6 48
10 -10 146 346 322 127 -0 49
21 -7 150 351 326 131 7 48
44 -5 156 356 332 137 15 49
66 -3 159 359 342 148 22 53
78 -0 156 361 351 161 24 59
77 3 152 365 355 167 22 62
68 5 151 371 356 166 24 63
59 6 153 375 358 164 32 64
59 5 151 376 361 166 39 68
68 4 142 374 363 173 41 74
78 5 132 371 361 181 39 78
82 8 126 368 358 185 40 80
83 10 122 366 356 185 44 83
86 11 120 364 354 184 49 86
93 10 122 361 351 185 54 88
102 11 129 356 347 188 61 87
107 15 132 351 346 190 68 88
107 21 128 347 346 192 72 92
102 24 122 346 346 195 73 98
96 24 118 345 343 197 75 101
93 24 112 342 337 195 78 102
97 24 98 336 330 189 79 104
107 24 83 327 322 185 78 107
118 25 77 317 313 185 77 108
127 29 78 307 307 185 78 107
130 36 77 299 305 181 79 106
127 39 68 293 303 176 78 107
118 38 58 286 298 175 77 110
107 39 54 278 288 176 78 112
102 48 57 267 277 175 82 113
107 59 59 254 268 171 88 117
115 62 56 242 262 169 90 125
117 59 49 234 259 171 88 132
110 57 44 228 256 172 84 131
102 59 44 220 249 166 83 122
99 61 43 209 237 154 84 111
98 59 39 195 224 142 83 107
95 58 32 183 214 137 80 110
88 63 29 176 210 137 78 117
80 71 31 170 207 135 79 125
73 73 34 161 200 127 78 132
65 64 33 149 190 114 71 135
59 54 29 137 181 102 63 132
56 51 25 129 174 94 59 125
54 54 24 122 166 88 59 122
51 56 28 113 156 81 58 123
44 54 34 102 146 73 54 122
36 51 39 91 135 66 47 115
29 49 39 83 122 59 39 107
22 43 32 74 106 48 31 103
15 34 20 63 93 34 24 98
8 26 8 50 86 21 18 84
5 24 -0 39 83 15 10 68
5 26 -4 31 77 12 0 60
5 24 -5 24 68 5 -10 63
-0 17 -5 16 58 -8 -18 65
-10 10 -5 10 49 -20 -24 59
-22 7 -4 9 40 -26 -29 49
-34 5 -0 10 34 -29 -34 44
-44 2 5 7 30 -34 -39 45
-49 0 10 -0 29 -39 -44 44
-49 1 11 -7 27 -41 -50 38
-49 -0 10 -10 24 -44 -59 29
-54 -5 9 -9 20 -51 -70 23
-59 -10 10 -10 15 -59 -78 20
-57 -11 11 -15 11 -63 -80 15
-49 -10 10 -20 10 -63 -78 10
-41 -11 7 -22 13 -64 -76 8
-39 -15 5 -20 15 -68 -78 10
-47 -19 7 -19 13 -75 -84 12
-63 -24 10 -20 10 -83 -88 10
-80 -32 10 -21 9 -88 -89 4
-88 -39 10 -20 10 -88 -88 -0
-82 -41 14 -17 11 -83 -88 -1
-68 -39 24 -15 10 -78 -88 -0
-55 -38 35 -14 10 -76 -88 1
-49 -39 39 -15 10 -78 -88 0
-52 -39 36 -15 10 -81 -88 -1
-63 -39 29 -15 10 -83 -88 -0
-76 -39 23 -15 10 -84 -88 1
-78 -39 20 -15 10 -83 -88 0
-69 -37 19 -16 10 -82 -88 -2
-63 -34 20 -15 10 -83 -88 -5
-67 -31 22 -13 10 -85 -87 -6
-73 -29 24 -10 10 -88 -88 -5
-72 -28 24 -8 11 -92 -94 -4
-68 -29 24 -5 10 -98 -102 -5
-69 -31 26 -1 8 -101 -107 -9
-73 -29 29 -0 5 -98 -107 -10
-71 -23 31 -2 4 -89 -102 -6
-63 -20 29 -5 5 -83 -98 -0
-59 -23 26 -6 6 -84 -99 3
-63 -29 24 -5 5 -88 -107 0
-70 -31 24 -6 4 -89 -116 -6
-73 -29 24 -10 5 -88 -117 -10
-69 -28 23 -13 6 -87 -109 -11
-63 -29 20 -15 5 -88 -102 -10
-61 -29 18 -15 2 -88 -104 -9
-63 -29 20 -15 0 -88 -112 -10
-66 -31 25 -15 -1 -90 -116 -13
-68 -34 29 -15 -0 -93 -112 -15
-68 -35 29 -15 0 -94 -106 -13
-68 -34 24 -15 0 -93 -102 -10
-66 -32 16 -14 -0 -93 -101 -9
-63 -29 10 -15 -0 -93 -102 -10
-61 -27 9 -18 1 -93 -103 -11
-63 -29 10 -20 0 -93 -107 -10
-69 -34 11 -21 -4 -95 -111 -9
-73 -39 10 -24 -10 -98 -112 -10
-72 -40 9 -29 -16 -100 -109 -12
-68 -39 5 -34 -20 -102 -107 -15
-64 -38 -1 -36 -20 -104 -109 -18
-63 -39 -5 -34 -20 -107 -112 -20
-63 -40 -5 -32 -21 -110 -114 -20
-63 -39 -0 -34 -24 -112 -117 -20
-62 -38 4 -37 -27 -113 -119 -20
-63 -39 5 -39 -29 -112 -117 -20
-65 -40 3 -39 -32 -111 -111 -20
-68 -39 -0 -39 -34 -112 -107 -20
-71 -38 -3 -41 -36 -116 -111 -22
-73 -39 -5 -44 -39 -122 -117 -24
-74 -44 -8 -46 -42 -126 -119 -25
-73 -49 -10 -49 -44 -127 -117 -24
-70 -51 -12 -54 -44 -127 -115 -23
-68 -49 -15 -59 -44 -127 -117 -24
-68 -47 -18 -61 -46 -129 -122 -28
-68 -49 -20 -63 -49 -132 -132 -34
-68 -52 -21 -67 -51 -135 -144 -40
-68 -54 -20 -73 -54 -137 -151 -44
-66 -54 -17 -76 -58 -137 -150 -45
-59 -54 -10 -78 -63 -137 -146 -44
-49 -56 -2 -80 -66 -139 -144 -44
-44 -59 -0 -83 -68 -142 -146 -44
-49 -60 -7 -84 -70 -143 -147 -44
-63 -59 -20 -83 -73 -142 -146 -44
-78 -59 -30 -81 -76 -141 -146 -44
-88 -59 -34 -78 -78 -142 -146 -44
-91 -58 -33 -77 -79 -143 -145 -42
-88 -54 -34 -78 -78 -142 -142 -39
-82 -50 -37 -81 -75 -139 -138 -36
-78 -49 -39 -83 -73 -137 -137 -34
-77 -51 -38 -83 -74 -138 -140 -33
-78 -54 -34 -83 -78 -142 -146 -34
-78 -57 -31 -85 -84 -145 -152 -36
-78 -59 -29 -88 -88 -146 -156 -39
-78 -60 -29 -89 -89 -146 -157 -42
-78 -59 -29 -88 -88 -146 -156 -44
-78 -58 -29 -87 -88 -146 -156 -46
-78 -59 -29 -88 -88 -146 -156 -49
-78 -61 -27 -88 -88 -146 -156 -51
-78 -63 -24 -88 -88 -146 -156 -49
-77 -63 -21 -88 -88 -146 -156 -45
-73 -63 -20 -88 -88 -146 -156 -44
-69 -65 -21 -88 -90 -146 -156 -45
-68 -68 -20 -88 -93 -146 -156 -44
-72 -71 -19 -88 -97 -145 -155 -40
-78 -73 -20 -88 -98 -146 -156 -39
-84 -76 -25 -89 -98 -148 -157 -44
-88 -78 -29 -88 -98 -151 -156 -49
-89 -78 -30 -87 -99 -152 -153 -46
-88 -78 -29 -88 -98 -151 -151 -39
-85 -78 -31 -91 -96 -150 -152 -36
-83 -78 -34 -93 -98 -151 -151 -39
-83 -77 -35 -93 -104 -153 -149 -42
-83 -78 -34 -93 -107 -156 -151 -44
-80 -80 -32 -94 -100 -158 -158 -45
-73 -78 -29 -93 -88 -156 -161 -44
-66 -71 -25 -89 -78 -151 -153 -39
-63 -63 -20 -83 -73 -146 -142 -34
-67 -59 -17 -79 -71 -144 -138 -33
-78 -59 -15 -78 -73 -146 -142 -34
-89 -58 -13 -76 -77 -147 -145 -35
-88 -54 -10 -73 -78 -146 -142 -34
-70 -47 -8 -70 -73 -144 -136 -32
-44 -39 -10 -68 -68 -142 -132 -29
-24 -31 -13 -65 -68 -140 -129 -24
-15 -24 -10 -59 -68 -137 -127 -20
-17 -18 -1 -52 -62 -130 -124 -22
-24 -15 10 -44 -54 -122 -122 -29
-30 -14 17 -38 -49 -115 -120 -35
-29 -15 20 -34 -44 -112 -117 -34
-21 -13 21 -32 -34 -110 -112 -25
-15 -5 20 -29 -24 -107 -107 -10
-13 5 18 -24 -21 -101 -104 5
-10 10 20 -15 -20 -93 -102 15
-1 9 29 -4 -14 -84 -98 17
10 10 39 5 -5 -78 -93 15
14 19 46 11 2 -75 -87 14
10 29 49 15 5 -73 -83 15
6 34 50 16 6 -72 -81 16
5 34 49 15 5 -73 -83 15
6 34 46 12 3 -74 -86 14
5 34 44 10 0 -73 -88 15
4 30 44 9 -0 -71 -87 16
5 24 39 5 -0 -73 -88 15
13 21 26 -2 -1 -78 -90 14
24 24 10 -10 -5 -83 -88 15
30 27 -3 -19 -13 -84 -84 17
24 24 -15 -34 -29 -88 -88 15
9 16 -28 -54 -50 -100 -104 6
0 5 -39 -73 -68 -117 -122 -5
3 -5 -42 -83 -78 -131 -130 -10
10 -15 -39 -83 -83 -137 -127 -10
13 -23 -37 -81 -86 -137 -122 -9
10 -29 -39 -83 -88 -137 -122 -10
5 -34 -42 -88 -90 -139 -128 -15
-5 -44 -39 -93 -93 -146 -137 -24
-21 -58 -31 -94 -97 -155 -146 -35
-39 -68 -24 -93 -98 -161 -151 -44
-55 -69 -23 -92 -97 -162 -153 -48
-68 -68 -29 -93 -98 -161 -156 -49
-81 -72 -38 -95 -105 -161 -161 -50
-93 -83 -44 -98 -112 -166 -166 -54
-99 -93 -45 -101 -113 -172 -168 -61
-98 -98 -44 -102 -112 -176 -171 -68
-95 -99 -43 -103 -113 -178 -176 -72
-93 -98 -44 -107 -117 -181 -181 -73
-93 -97 -46 -115 -120 -186 -183 -72
-93 -98 -49 -122 -122 -190 -181 -73
-94 -102 -51 -125 -125 -191 -180 -76
-98 -107 -49 -122 -127 -190 -181 -78
-105 -111 -43 -118 -127 -187 -182 -78
-112 -112 -34 -117 -127 -185 -181 -78
-115 -112 -23 -118 -127 -183 -179 -78
-112 -112 -15 -117 -127 -185 -181 -78
-106 -112 -16 -116 -127 -190 -186 -77
-102 -112 -29 -117 -127 -195 -190 -78
-101 -112 -48 -122 -130 -197 -191 -80
-102 -112 -59 -127 -132 -195 -190 -83
-103 -112 -60 -128 -133 -192 -190 -83
-98 -112 -59 -127 -132 -190 -190 -78
-90 -112 -64 -126 -133 -189 -190 -73
-88 -112 -68 -122 -132 -190 -190 -73
-98 -113 -62 -120 -130 -192 -189 -75
-117 -112 -49 -122 -127 -190 -185 -73
-137 -113 -37 -128 -128 -189 -181 -71
-146 -117 -29 -127 -127 -190 -181 -73
-137 -123 -30 -118 -124 -195 -187 -81
-112 -127 -39 -107 -117 -195 -190 -83
-98 -139 -33 -94 -111 -201 -201 -89
-122 -171 15 -63 -102 -220 -229 -117
-182 -229 105 -11 -92 -255 -284 -179
-239 -288 200 49 -73 -283 -342 -249
-273 -327 281 116 -36 -291 -385 -303
-293 -332 366 205 29 -278 -405 -332
-319 -310 470 323 120 -251 -410 -347
-332 -259 556 434 215 -205 -395 -337
-299 -182 575 504 294 -129 -345 -289
-215 -83 522 532 356 -24 -249 -200
-116 27 453 569 434 104 -121 -91
-29 142 415 649 551 249 20 24
76 251 405 774 708 417 170 153
249 351 381 908 874 610 346 312
491 466 327 1019 1041 843 571 514
737 634 249 1084 1221 1128 854 761
932 869 152 1107 1425 1468 1192 1053
1075 1138 24 1094 1626 1836 1567 1382
1186 1399 -122 1037 1773 2177 1945 1719
1255 1621 -249 913 1816 2412 2260 2007
1257 1755 -348 712 1720 2466 2421 2173
1206 1738 -468 429 1460 2290 2368 2177
1136 1562 -654 58 1040 1906 2130 2047
1055 1309 -874 -395 512 1397 1802 1846
936 1083 -1046 -858 -22 873 1462 1623
766 917 -1119 -1216 -464 415 1133 1387
585 788 -1107 -1404 -768 66 828 1150
444 664 -1060 -1470 -956 -181 576 937
354 533 -1019 -1503 -1082 -366 380 758
278 381 -1006 -1543 -1187 -542 190 581
183 208 -1011 -1575 -1284 -727 -21 393
78 44 -1006 -1582 -1363 -888 -215 220
-5 -78 -978 -1564 -1402 -982 -339 97
-54 -156 -942 -1519 -1387 -1001 -400 15
-81 -208 -920 -1456 -1333 -985 -444 -54
-98 -244 -903 -1392 -1275 -972 -483 -112
-107 -261 -873 -1330 -1221 -957 -499 -143
-112 -259 -815 -1241 -1143 -913 -488 -151
-126 -252 -739 -1107 -1026 -837 -471 -161
-146 -249 -654 -952 -893 -752 -454 -181
-164 -253 -568 -816 -778 -686 -437 -204
-166 -254 -478 -698 -673 -625 -410 -210
-156 -251 -388 -579 -562 -553 -380 -199
-142 -239 -303 -454 -444 -468 -342 -171
-134 -223 -231 -346 -349 -396 -306 -143
-132 -205 -176 -273 -288 -346 -278 -127
-134 -190 -133 -225 -246 -310 -265 -127
-132 -176 -98 -185 -205 -273 -254 -127
-126 -165 -67 -143 -166 -241 -238 -121
-117 -156 -44 -112 -142 -224 -220 -112
-112 -154 -28 -96 -129 -221 -213 -110
-117 -156 -20 -88 -117 -220 -215 -112
-130 -158 -13 -74 -99 -212 -216 -113
-137 -156 -5 -59 -88 -205 -210 -112
-131 -149 7 -47 -87 -202 -199 -112
-117 -142 15 -44 -88 -200 -190 -112
-107 -138 19 -38 -77 -191 -186 -110
-107 -137 20 -29 -63 -181 -185 -107
-112 -137 26 -17 -56 -176 -185 -107
-117 -137 39 -10 -54 -176 -185 -107
-122 -138 54 -4 -47 -174 -185 -105
-127 -137 59 0 -39 -171 -185 -102
-128 -133 53 4 -35 -169 -184 -101
-122 -127 39 5 -34 -166 -181 -102
-113 -123 27 6 -30 -158 -178 -102
-112 -122 20 10 -24 -151 -176 -102
-124 -123 20 17 -21 -150 -176 -102
-137 -122 24 24 -20 -151 -176 -102
-140 -119 30 28 -16 -147 -174 -100
-132 -117 34 29 -10 -142 -171 -98
-121 -116 32 31 -8 -141 -170 -98
-112 -117 29 34 -10 -142 -171 -98
-104 -117 29 37 -10 -141 -173 -96
-98 -117 34 39 -5 -137 -171 -93
-99 -117 40 42 5 -132 -164 -92
-107 -117 44 49 15 -127 -156 -93
-116 -115 46 56 23 -121 -149 -92
-117 -112 49 59 29 -117 -146 -88
-110 -109 52 58 31 -115 -144 -83
-102 -107 54 59 29 -112 -142 -78
-100 -105 54 65 28 -106 -139 -72
-102 -102 54 73 34 -102 -137 -68
-103 -101 56 79 45 -101 -135 -67
-102 -102 63 83 54 -98 -132 -68
-101 -103 72 87 57 -90 -127 -67
-98 -102 78 93 59 -83 -122 -63
-92 -99 79 98 64 -81 -121 -61
-88 -98 78 102 68 -83 -122 -63
-91 -101 78 104 70 -82 -123 -69
-98 -102 78 107 73 -78 -122 -73
-101 -98 76 111 82 -73 -119 -71
-93 -93 73 117 93 -68 -112 -63
-77 -90 72 124 99 -62 -105 -56
-63 -88 73 132 102 -59 -102 -54
-58 -83 73 139 106 -59 -102 -55
-63 -78 73 146 112 -59 -98 -54
-71 -75 74 153 117 -54 -89 -49
-73 -73 78 161 122 -44 -83 -44
-68 -68 86 171 128 -34 -81 -43
-59 -63 98 181 137 -24 -78 -44
-54 -61 110 189 145 -14 -70 -42
-54 -63 117 195 151 -5 -63 -39
-57 -63 119 201 155 1 -63 -38
-59 -59 122 210 161 5 -63 -39
-56 -53 127 218 171 9 -57 -39
-49 -49 132 224 181 15 -49 -34
-42 -48 133 229 189 22 -48 -25
-39 -49 132 239 195 29 -49 -15
-37 -49 132 253 202 35 -45 -8
-34 -49 132 264 210 39 -39 -5
-30 -48 130 269 218 44 -37 -8
-29 -44 127 273 229 54 -39 -15
-31 -38 127 281 242 66 -37 -20
-29 -34 132 293 254 73 -29 -20
-20 -33 139 304 262 75 -19 -13
-10 -34 142 312 268 78 -15 -5
-8 -34 142 321 275 87 -15 1
-10 -34 146 332 283 98 -15 5
-8 -36 157 343 291 106 -9 8
-0 -34 171 351 298 112 0 10
11 -27 181 357 305 117 8 10
20 -20 185 366 312 122 10 10
27 -21 186 377 319 126 9 11
29 -29 185 386 327 132 10 15
28 -37 184 391 336 140 14 19
29 -39 185 395 342 146 20 20
37 -33 189 402 345 150 26 21
49 -24 195 410 351 156 34 24
61 -16 198 416 361 168 41 31
68 -10 195 420 371 181 44 39
70 -7 191 424 376 187 43 43
68 -5 190 429 376 185 44 44
65 -4 192 432 377 182 51 45
68 -5 190 434 381 185 59 49
77 -6 185 436 386 192 63 55
88 -5 181 439 390 200 68 59
93 -2 182 442 393 204 76 61
93 0 181 444 395 205 83 63
89 -1 176 443 394 204 83 66
83 -5 171 439 390 205 78 68
78 -7 171 434 387 208 76 67
78 -5 171 429 386 210 78 68
86 1 167 424 387 212 81 72
98 5 161 420 386 215 83 78
108 6 157 415 382 217 85 82
112 5 151 410 376 215 88 83
113 5 139 403 369 209 91 85
112 5 127 395 361 205 93 88
113 6 124 385 352 205 96 89
117 10 127 376 346 205 98 88
123 17 126 368 343 200 99 87
127 20 117 361 342 195 98 88
124 19 106 355 337 194 97 91
117 20 102 346 327 195 98 93
113 29 108 334 316 194 102 94
117 39 117 322 307 190 107 98
125 42 121 311 301 188 109 105
127 39 117 303 298 190 107 112
117 37 106 294 293 191 103 114
102 39 93 283 283 185 102 112
91 41 80 269 269 173 103 109
88 39 68 254 254 161 102 107
91 38 59 241 244 156 99 107
98 44 54 234 239 156 98 107
103 53 54 229 235 154 99 108
102 54 54 220 229 146 98 112
92 45 49 205 219 135 92 115
78 34 39 190 210 127 83 112
68 31 28 179 202 122 78 105
63 34 24 171 195 117 78 102
60 38 27 162 186 112 79 103
54 39 34 151 176 107 78 102
47 40 39 140 165 103 74 95
39 39 39 132 151 98 68 88
32 34 36 123 133 88 61 86
24 24 34 112 117 73 54 83
18 16 32 99 107 60 47 73
15 15 29 88 102 54 39 59
16 17 24 77 94 51 31 52
15 15 20 63 83 44 24 54
10 7 17 48 70 32 19 55
0 0 15 39 59 20 15 49
-11 -3 12 37 50 14 10 39
-20 -5 10 39 44 10 5 34
-27 -8 9 36 41 5 -0 34
-29 -10 10 29 39 0 -5 34
-28 -9 11 22 37 -4 -11 28
-29 -10 10 20 34 -10 -20 20
-34 -15 9 21 30 -19 -31 14
-39 -20 10 20 24 -29 -39 10
-41 -21 11 15 18 -34 -42 5
-39 -20 10 10 15 -34 -39 0
-37 -21 7 8 15 -35 -37 -2
-39 -24 5 10 15 -39 -39 -0
-45 -26 7 11 13 -45 -46 2
-54 -29 10 10 10 -49 -54 0
-64 -34 10 9 9 -51 -58 -5
-68 -39 10 10 10 -49 -59 -10
-64 -40 13 13 10 -44 -59 -13
-54 -39 20 15 10 -39 -59 -15
-44 -38 27 16 10 -37 -59 -18
-39 -39 29 15 10 -39 -59 -20
-42 -39 24 14 10 -42 -59 -21
-54 -39 15 15 10 -44 -59 -20
-66 -39 6 16 10 -45 -59 -19
-68 -39 -0 15 10 -44 -59 -20
-60 -39 -2 14 10 -42 -59 -22
-54 -39 0 15 10 -39 -59 -24
-57 -40 3 18 10 -38 -58 -25
-63 -39 5 20 10 -39 -59 -24
-64 -38 7 20 11 -43 -63 -21
-63 -39 10 20 10 -49 -68 -20
-68 -41 15 20 8 -52 -70 -21
-73 -39 20 20 5 -49 -68 -20
-70 -33 23 18 4 -42 -63 -16
-59 -29 24 15 5 -39 -59 -10
-52 -33 24 14 6 -43 -60 -7
-54 -39 24 15 5 -49 -68 -10
-61 -41 24 15 4 -51 -77 -15
-63 -39 24 15 5 -49 -78 -20
-59 -38 22 15 6 -48 -70 -21
-54 -39 20 15 5 -49 -63 -20
-57 -39 19 15 1 -49 -65 -19
-68 -39 20 15 -5 -49 -73 -20
-82 -41 24 15 -9 -51 -77 -23
-88 -44 29 15 -10 -54 -73 -24
-82 -45 29 15 -10 -55 -67 -24
-68 -44 24 15 -10 -54 -63 -24
-53 -42 16 16 -10 -54 -63 -26
-44 -39 10 15 -10 -54 -63 -29
-46 -37 9 12 -9 -54 -64 -30
-59 -39 10 10 -10 -54 -68 -29
-75 -44 11 8 -14 -56 -72 -29
-83 -49 10 5 -20 -59 -73 -29
-79 -50 7 -2 -24 -60 -68 -27
-68 -49 -0 -10 -24 -59 -63 -24
-57 -48 -9 -15 -21 -58 -61 -21
-54 -49 -15 -15 -20 -59 -63 -20
-58 -50 -16 -14 -21 -61 -69 -24
-68 -49 -15 -15 -24 -63 -78 -34
-78 -48 -14 -18 -27 -64 -86 -44
-83 -49 -15 -20 -29 -63 -88 -49
-79 -50 -14 -20 -32 -61 -82 -46
-68 -49 -10 -20 -34 -59 -78 -39
-58 -48 -6 -22 -36 -60 -81 -35
-54 -49 -5 -24 -39 -63 -88 -34
-57 -54 -6 -26 -42 -66 -90 -34
-63 -59 -5 -29 -44 -68 -88 -34
-67 -61 -3 -34 -44 -68 -87 -33
-68 -59 -5 -39 -44 -68 -88 -34
-68 -58 -13 -40 -46 -70 -90 -36
-68 -59 -24 -39 -49 -73 -93 -39
-68 -62 -34 -40 -51 -76 -98 -42
-68 -63 -39 -44 -54 -78 -102 -44
-69 -62 -40 -47 -58 -78 -101 -45
-68 -59 -39 -49 -63 -78 -98 -44
-65 -58 -38 -51 -66 -80 -97 -43
-63 -59 -39 -54 -68 -83 -98 -44
-64 -61 -40 -58 -72 -86 -100 -46
-68 -63 -39 -63 -78 -88 -102 -49
-73 -65 -36 -67 -84 -90 -104 -52
-78 -68 -34 -68 -88 -93 -107 -54
-80 -71 -35 -67 -91 -96 -108 -55
-78 -68 -34 -68 -93 -98 -107 -54
-73 -62 -32 -71 -93 -98 -106 -53
-68 -59 -34 -73 -93 -98 -107 -54
-68 -65 -43 -73 -93 -98 -108 -57
-73 -73 -54 -73 -93 -98 -107 -59
-79 -76 -58 -73 -93 -99 -106 -60
-83 -73 -54 -73 -93 -98 -107 -59
-84 -69 -46 -72 -93 -96 -110 -59
-83 -68 -39 -73 -93 -93 -112 -59
-82 -68 -33 -76 -93 -92 -110 -59
-83 -68 -29 -78 -93 -93 -107 -59
-84 -67 -30 -78 -95 -95 -106 -59
-83 -68 -34 -78 -98 -98 -107 -59
-77 -69 -38 -79 -101 -99 -107 -59
-68 -68 -39 -78 -102 -98 -107 -59
-64 -65 -38 -75 -101 -97 -107 -59
-68 -63 -39 -73 -102 -98 -107 -59
-77 -65 -42 -74 -104 -101 -107 -57
-83 -68 -44 -78 -107 -102 -107 -54
-84 -71 -42 -81 -108 -100 -107 -51
-83 -73 -39 -83 -107 -98 -107 -49
-85 -76 -38 -86 -107 -97 -107 -48
-88 -78 -39 -88 -107 -98 -107 -49
-89 -78 -43 -89 -107 -98 -107 -53
-88 -78 -49 -88 -107 -98 -107 -63
-87 -78 -56 -88 -107 -98 -107 -74
-88 -78 -59 -88 -107 -98 -107 -78
-88 -76 -55 -88 -107 -98 -107 -72
-88 -73 -49 -88 -107 -98 -107 -63
-86 -70 -45 -88 -107 -98 -106 -58
-83 -68 -44 -88 -107 -98 -107 -59
-79 -67 -43 -88 -109 -98 -109 -60
-78 -68 -39 -88 -112 -98 -112 -59
-82 -70 -37 -88 -116 -97 -114 -61
-88 -73 -39 -88 -117 -98 -117 -68
-90 -74 -45 -88 -117 -100 -119 -76
-88 -73 -49 -88 -117 -102 -117 -78
-83 -70 -49 -87 -118 -103 -113 -74
-78 -68 -49 -88 -117 -102 -112 -68
-74 -68 -51 -89 -115 -101 -113 -66
-73 -68 -54 -88 -117 -102 -112 -68
-74 -68 -55 -85 -124 -104 -110 -71
-73 -68 -54 -83 -127 -107 -112 -73
-69 -69 -52 -83 -123 -108 -119 -74
-63 -68 -49 -83 -117 -107 -122 -73
-58 -62 -45 -79 -114 -103 -114 -68
-54 -54 -39 -73 -112 -98 -102 -63
-53 -49 -31 -67 -106 -93 -97 -60
-54 -49 -20 -63 -98 -88 -98 -59
-54 -49 -8 -58 -93 -83 -98 -57
-49 -44 0 -54 -88 -78 -93 -54
-40 -35 -3 -51 -82 -73 -87 -52
-34 -24 -15 -49 -78 -68 -83 -49
-34 -13 -27 -45 -79 -64 -81 -44
-34 -5 -29 -39 -78 -59 -78 -39
-30 1 -19 -31 -71 -52 -73 -36
-24 5 -5 -24 -63 -44 -68 -34
-18 6 5 -18 -58 -37 -64 -29
-10 5 10 -15 -54 -34 -59 -24
-1 7 11 -13 -46 -34 -54 -21
5 15 10 -10 -39 -34 -49 -20
6 25 8 -3 -38 -31 -46 -18
10 29 10 5 -39 -24 -44 -15
24 27 17 12 -34 -16 -40 -11
44 29 24 15 -24 -10 -34 -5
59 39 28 16 -16 -6 -28 1
59 49 29 15 -15 -5 -24 5
45 49 28 12 -18 -8 -24 3
24 39 24 5 -24 -15 -29 -5
5 30 19 -4 -32 -21 -35 -12
-5 24 15 -10 -39 -24 -39 -15
-3 20 8 -15 -45 -26 -42 -15
10 15 -10 -24 -54 -34 -49 -15
28 13 -37 -37 -65 -46 -57 -16
44 15 -59 -49 -73 -54 -59 -15
51 18 -65 -54 -77 -52 -52 -13
44 15 -63 -59 -83 -49 -49 -15
30 6 -64 -70 -94 -55 -58 -24
20 -5 -68 -83 -107 -68 -73 -34
17 -13 -68 -90 -113 -78 -81 -38
15 -20 -63 -88 -112 -78 -78 -34
8 -25 -58 -83 -109 -72 -73 -29
0 -29 -59 -83 -107 -68 -73 -29
-6 -32 -61 -88 -108 -70 -79 -34
-15 -39 -59 -93 -112 -78 -88 -44
-32 -50 -52 -94 -116 -87 -97 -55
-49 -59 -44 -93 -117 -93 -102 -63
-55 -61 -39 -92 -115 -94 -104 -67
-49 -59 -39 -93 -117 -93 -107 -68
-41 -62 -41 -95 -125 -94 -112 -69
-44 -73 -44 -98 -132 -98 -117 -73
-58 -87 -45 -101 -133 -103 -119 -80
-78 -98 -44 -102 -132 -107 -122 -88
-94 -105 -43 -103 -133 -109 -127 -92
-102 -107 -44 -107 -137 -112 -132 -93
-103 -106 -50 -114 -138 -117 -134 -92
-102 -107 -59 -122 -137 -122 -132 -93
-103 -112 -66 -125 -136 -124 -131 -96
-107 -117 -68 -122 -137 -122 -132 -98
-113 -119 -68 -118 -137 -119 -133 -98
-117 -117 -68 -117 -137 -117 -132 -98
-116 -114 -68 -118 -137 -116 -130 -98
-112 -112 -63 -117 -137 -117 -132 -98
-106 -112 -59 -114 -136 -122 -137 -98
-102 -112 -63 -112 -137 -127 -142 -98
-100 -112 -74 -115 -140 -129 -144 -99
-102 -112 -78 -117 -142 -127 -142 -102
-105 -112 -67 -116 -140 -122 -138 -103
-107 -112 -49 -112 -137 -117 -132 -102
-107 -112 -36 -108 -136 -114 -126 -101
-107 -112 -29 -102 -132 -112 -122 -102
-108 -112 -25 -97 -129 -112 -126 -108
-107 -112 -24 -98 -127 -112 -132 -112
-106 -114 -25 -103 -130 -113 -139 -117
-107 -117 -20 -98 -127 -112 -142 -122
-120 -128 -4 -78 -118 -113 -150 -133
-142 -146 20 -49 -102 -112 -161 -146
-178 -176 59 -18 -88 -119 -183 -166
-220 -210 122 24 -73 -132 -210 -195
-259 -239 208 84 -48 -144 -240 -234
-278 -249 293 156 -5 -137 -259 -264
-279 -240 370 238 58 -110 -266 -281
-273 -215 444 332 137 -73 -259 -283
-259 -173 514 442 233 -23 -232 -270
-215 -102 542 537 332 54 -171 -224
-124 -2 503 593 417 162 -73 -139
0 112 415 610 483 288 54 -24
132 235 338 639 569 438 211 112
268 371 303 717 712 625 400 273
431 505 294 844 901 844 608 453
630 615 264 966 1070 1050 805 634
837 722 199 1038 1188 1233 999 818
1011 888 107 1045 1294 1445 1236 1040
1140 1133 -3 1015 1437 1731 1544 1320
1241 1382 -142 956 1577 2031 1870 1616
1316 1539 -305 830 1599 2206 2103 1839
1338 1577 -464 586 1426 2153 2168 1929
1293 1525 -601 254 1100 1907 2074 1897
1206 1406 -732 -88 727 1577 1880 1787
1104 1232 -875 -402 364 1233 1638 1635
982 1031 -1011 -727 -15 864 1363 1445
816 845 -1100 -1074 -420 456 1057 1219
620 693 -1128 -1363 -786 63 742 977
448 562 -1109 -1505 -1031 -228 472 757
337 429 -1070 -1519 -1143 -395 278 581
273 287 -1034 -1497 -1190 -502 135 432
210 137 -1016 -1494 -1236 -620 -15 278
128 -0 -1009 -1498 -1289 -753 -179 125
44 -102 -992 -1480 -1319 -849 -307 5
-17 -164 -951 -1433 -1305 -874 -364 -66
-54 -205 -903 -1363 -1250 -844 -381 -112
-80 -239 -866 -1281 -1177 -806 -404 -157
-98 -259 -830 -1197 -1104 -776 -425 -190
-108 -257 -780 -1110 -1030 -741 -420 -194
-112 -239 -708 -1006 -937 -678 -390 -181
-122 -226 -624 -877 -826 -598 -365 -179
-137 -220 -532 -737 -708 -517 -346 -190
-148 -219 -435 -611 -604 -451 -324 -201
-146 -215 -342 -503 -508 -390 -293 -200
-139 -211 -263 -408 -416 -333 -266 -194
-132 -200 -200 -322 -332 -278 -239 -181
-131 -185 -148 -253 -269 -234 -212 -167
-132 -166 -107 -205 -229 -200 -190 -156
-134 -151 -75 -171 -201 -171 -181 -156
-132 -137 -54 -142 -176 -142 -176 -156
-126 -125 -36 -113 -154 -118 -165 -150
-117 -117 -24 -93 -142 -107 -151 -142
-112 -120 -20 -80 -135 -107 -148 -143
-117 -132 -29 -73 -127 -107 -156 -151
-129 -144 -41 -61 -114 -102 -163 -159
-137 -146 -44 -49 -107 -98 -161 -161
-135 -136 -29 -39 -107 -96 -152 -157
-127 -122 -5 -34 -107 -93 -146 -146
-123 -111 14 -28 -96 -83 -144 -133
-127 -107 20 -20 -83 -73 -146 -127
-133 -110 16 -9 -76 -69 -146 -132
-137 -117 5 0 -73 -68 -146 -142
-141 -124 -6 6 -66 -65 -146 -150
-146 -127 -10 10 -59 -63 -146 -151
-144 -123 1 13 -55 -62 -145 -146
-132 -117 24 15 -54 -59 -142 -137
-117 -112 48 17 -49 -50 -138 -126
-112 -112 59 20 -44 -44 -137 -122
-120 -113 53 25 -43 -47 -137 -129
-127 -112 39 29 -44 -54 -137 -142
-123 -109 28 30 -42 -57 -135 -152
-112 -107 24 29 -39 -54 -132 -156
-108 -107 23 30 -38 -50 -131 -153
-112 -107 24 34 -39 -44 -132 -146
-117 -107 28 37 -39 -36 -134 -137
-117 -107 34 39 -34 -29 -132 -132
-115 -107 38 42 -27 -26 -126 -131
-117 -107 39 49 -20 -24 -117 -132
-119 -105 38 56 -14 -22 -110 -130
-117 -102 39 59 -10 -20 -107 -127
-112 -100 43 58 -8 -20 -107 -124
-112 -98 49 59 -10 -20 -107 -122
-118 -96 53 65 -11 -18 -107 -119
-122 -93 54 73 -5 -15 -107 -117
-116 -91 55 79 6 -14 -106 -116
-102 -93 59 83 15 -10 -102 -117
-87 -95 64 87 18 -2 -97 -116
-78 -93 68 93 20 5 -93 -112
-75 -87 69 98 25 8 -92 -106
-78 -83 68 102 29 10 -93 -102
-87 -83 68 104 31 14 -93 -101
-98 -83 68 107 34 20 -93 -102
-103 -79 69 111 43 24 -91 -103
-98 -73 73 117 54 29 -88 -102
-86 -70 79 124 60 35 -84 -101
-73 -68 83 132 63 39 -83 -102
-65 -65 82 138 67 39 -84 -103
-63 -63 78 142 73 39 -83 -102
-63 -63 76 145 79 45 -78 -97
-63 -63 78 151 83 54 -73 -93
-61 -59 81 160 89 62 -70 -90
-59 -54 83 171 98 68 -63 -88
-60 -52 85 179 107 75 -52 -84
-63 -54 88 185 112 83 -44 -78
-65 -54 90 191 116 89 -44 -73
-63 -49 93 200 122 93 -44 -68
-57 -43 97 209 132 97 -37 -61
-49 -39 102 215 142 102 -29 -54
-42 -38 110 220 150 109 -29 -51
-39 -39 122 229 156 117 -34 -54
-37 -39 135 242 163 123 -34 -59
-34 -39 142 254 171 127 -29 -63
-30 -38 139 260 178 132 -27 -63
-29 -34 132 264 185 142 -29 -63
-31 -28 128 271 195 154 -28 -62
-29 -24 132 283 205 161 -20 -59
-23 -23 138 295 213 161 -10 -52
-20 -24 142 307 220 161 -5 -44
-25 -24 143 319 227 167 -5 -38
-29 -24 146 332 234 176 -5 -34
-21 -25 152 341 241 184 -2 -31
-0 -24 156 346 249 190 5 -29
24 -17 157 349 257 195 10 -29
39 -10 156 356 264 200 10 -29
42 -8 156 366 270 204 7 -28
34 -10 156 376 278 210 5 -24
23 -12 155 382 287 218 6 -21
20 -10 156 386 293 224 10 -20
28 -7 164 391 295 226 16 -21
44 -5 176 395 298 229 24 -20
59 -3 184 397 304 237 32 -16
68 -0 185 400 312 249 34 -10
71 3 182 406 316 257 32 -6
68 5 181 415 317 259 34 -5
65 6 183 422 318 260 42 -4
68 5 181 425 322 264 49 0
78 4 175 425 325 269 51 6
88 5 171 425 327 273 49 10
93 8 171 425 327 274 50 12
93 10 171 425 327 273 54 15
92 11 166 423 325 272 57 18
93 10 161 420 322 273 59 20
95 11 160 415 318 276 63 19
98 15 161 410 317 278 68 20
103 21 162 405 318 280 71 26
107 24 166 400 317 283 73 34
110 24 173 395 313 285 75 41
112 24 171 390 307 283 78 44
117 24 153 384 301 277 79 46
127 24 127 376 293 273 78 49
139 25 111 366 284 273 77 50
146 29 107 356 278 273 78 49
143 36 105 348 277 269 79 48
127 39 98 342 278 264 78 49
105 37 88 336 276 263 77 52
88 39 83 327 268 264 78 54
87 51 83 315 258 263 82 57
102 68 83 303 249 259 88 63
120 78 77 292 243 257 90 74
127 78 68 283 239 259 88 83
121 73 63 276 235 260 84 86
112 68 63 268 229 254 83 83
108 64 64 257 218 241 84 79
107 59 59 244 205 229 83 78
104 57 50 232 195 223 80 78
98 63 44 224 190 224 78 78
91 72 44 218 188 223 79 80
83 73 44 210 181 215 78 83
73 64 38 196 169 202 71 84
63 54 24 181 156 190 63 78
57 51 10 169 146 182 59 68
54 54 5 161 137 176 59 63
51 56 10 153 125 169 57 64
44 54 20 142 112 161 49 63
35 51 28 131 98 154 39 56
29 49 29 122 83 146 29 49
27 43 23 113 65 134 22 47
29 34 15 102 49 117 15 44
32 26 7 89 39 101 8 33
34 24 -0 78 34 93 -0 20
31 26 -6 69 28 89 -8 14
20 24 -10 59 20 83 -15 15
4 17 -13 47 10 71 -20 15
-10 10 -15 39 -0 59 -24 10
-16 10 -18 37 -9 52 -29 6
-15 15 -20 39 -15 49 -34 10
-12 19 -21 37 -18 44 -39 20
-10 20 -20 29 -20 39 -44 24
-12 16 -17 22 -24 35 -50 17
-20 5 -15 20 -29 29 -59 5
-31 -10 -13 21 -36 20 -69 -5
-39 -20 -10 20 -44 10 -78 -10
-41 -22 -7 13 -51 5 -82 -15
-39 -20 -5 5 -54 5 -83 -20
-38 -21 -5 0 -54 4 -84 -22
-39 -24 -5 -0 -54 0 -88 -20
-43 -25 -5 1 -56 -6 -94 -16
-49 -24 -5 0 -59 -10 -98 -15
-55 -26 -7 -1 -60 -12 -99 -17
-59 -29 -10 -0 -59 -10 -98 -20
-59 -30 -11 3 -59 -7 -99 -21
-59 -29 -10 5 -59 -5 -102 -20
-59 -28 -10 6 -59 -6 -105 -20
-59 -29 -10 5 -59 -10 -107 -20
-59 -29 -10 4 -60 -13 -109 -20
-63 -29 -10 5 -63 -15 -112 -20
-69 -29 -10 6 -66 -15 -115 -20
-68 -29 -10 5 -68 -15 -117 -20
-60 -29 -9 4 -68 -14 -118 -22
-54 -29 -5 5 -68 -15 -117 -24
-57 -30 1 8 -68 -17 -116 -25
-63 -29 5 10 -68 -20 -117 -24
-64 -28 6 10 -67 -24 -122 -21
-63 -29 5 10 -68 -29 -127 -20
-67 -31 7 10 -70 -32 -129 -20
-73 -29 10 10 -73 -29 -127 -20
-71 -23 12 8 -74 -23 -123 -17
-63 -20 10 5 -73 -20 -122 -15
-59 -23 7 4 -72 -24 -127 -16
-63 -29 5 5 -73 -29 -137 -20
-69 -31 5 5 -74 -31 -146 -25
-68 -29 5 5 -73 -29 -146 -29
-61 -28 4 5 -72 -28 -138 -30
-54 -29 0 5 -73 -29 -132 -29
-52 -29 -4 5 -77 -31 -138 -28
-54 -29 -5 5 -83 -34 -151 -29
-57 -31 -3 5 -87 -39 -161 -32
-59 -34 0 5 -88 -44 -161 -34
-61 -35 -1 5 -88 -45 -155 -32
-63 -34 -10 5 -88 -44 -151 -29
-64 -32 -22 5 -88 -44 -150 -28
-63 -29 -29 5 -88 -44 -151 -29
-61 -27 -27 4 -87 -44 -151 -26
-63 -29 -20 5 -88 -44 -151 -20
-68 -34 -13 6 -92 -46 -151 -13
-73 -39 -10 5 -98 -49 -151 -10
-74 -40 -9 -2 -104 -52 -150 -11
-73 -39 -10 -10 -107 -54 -151 -15
-73 -38 -12 -15 -107 -56 -156 -18
-73 -39 -15 -15 -107 -59 -161 -20
-70 -40 -16 -14 -109 -61 -164 -20
-63 -39 -15 -15 -112 -63 -166 -20
-56 -38 -14 -18 -115 -64 -168 -20
-54 -39 -15 -20 -117 -63 -166 -20
-60 -40 -17 -20 -120 -62 -161 -19
-73 -39 -20 -20 -122 -63 -161 -20
-87 -38 -22 -22 -124 -67 -168 -22
-93 -39 -24 -24 -127 -73 -176 -24
-86 -44 -25 -26 -132 -79 -178 -25
-68 -49 -24 -29 -137 -83 -176 -24
-48 -50 -23 -34 -140 -86 -174 -23
-39 -49 -24 -39 -142 -88 -176 -24
-45 -51 -29 -40 -143 -92 -181 -27
-59 -59 -34 -39 -142 -98 -190 -34
-72 -69 -37 -40 -141 -105 -202 -41
-78 -73 -39 -44 -142 -107 -210 -44
-79 -68 -41 -47 -146 -102 -206 -37
-78 -59 -44 -49 -151 -93 -195 -24
-75 -52 -47 -51 -154 -85 -186 -11
-73 -49 -49 -54 -156 -83 -185 -5
-73 -49 -50 -56 -158 -86 -189 -8
-78 -49 -49 -54 -161 -93 -195 -15
-84 -49 -47 -50 -163 -99 -201 -21
-88 -49 -44 -49 -166 -102 -205 -24
-87 -51 -41 -53 -170 -102 -208 -24
-83 -54 -39 -59 -176 -102 -210 -24
-79 -57 -38 -65 -182 -104 -212 -26
-78 -59 -39 -68 -185 -107 -215 -29
-78 -60 -40 -69 -186 -110 -216 -30
-78 -59 -39 -68 -185 -112 -215 -29
-78 -58 -37 -67 -185 -115 -214 -28
-78 -59 -39 -68 -185 -117 -215 -29
-78 -60 -45 -71 -185 -118 -218 -30
-78 -59 -49 -73 -185 -117 -220 -29
-77 -56 -49 -73 -185 -116 -220 -28
-73 -54 -49 -73 -185 -117 -220 -29
-69 -54 -51 -75 -187 -117 -222 -30
-68 -54 -49 -78 -190 -117 -224 -29
-72 -54 -43 -79 -193 -116 -224 -27
-78 -54 -39 -78 -195 -117 -224 -29
-84 -57 -43 -78 -196 -119 -225 -35
-88 -59 -49 -78 -200 -122 -224 -39
-90 -59 -50 -77 -204 -123 -221 -35
-88 -59 -49 -78 -205 -122 -220 -29
-82 -59 -52 -81 -203 -121 -221 -27
-73 -59 -59 -83 -205 -122 -220 -29
-66 -58 -63 -83 -211 -124 -218 -32
-63 -59 -63 -83 -215 -127 -220 -34
-66 -62 -64 -84 -211 -129 -228 -35
-73 -63 -68 -83 -205 -127 -234 -34
-80 -60 -70 -79 -202 -122 -229 -29
-83 -54 -68 -73 -200 -117 -220 -24
-83 -50 -62 -70 -195 -114 -217 -21
-83 -49 -54 -68 -190 -112 -220 -20
-84 -48 -46 -66 -187 -110 -222 -18
-78 -44 -39 -63 -185 -107 -220 -15
-61 -37 -37 -62 -182 -106 -218 -13
-39 -29 -39 -63 -181 -107 -220 -10
-22 -22 -42 -63 -184 -108 -224 -5
-15 -15 -39 -59 -185 -107 -224 -0
-17 -7 -30 -52 -179 -101 -220 3
-24 0 -20 -44 -171 -93 -215 5
-30 4 -13 -38 -166 -86 -210 9
-29 5 -10 -34 -161 -83 -205 15
-21 7 -9 -30 -153 -83 -198 22
-15 15 -10 -24 -146 -83 -190 29
-13 25 -12 -15 -145 -80 -184 37
-10 29 -10 -5 -146 -73 -181 44
-0 28 -1 4 -141 -65 -177 49
10 29 10 10 -132 -59 -171 54
13 39 17 13 -125 -56 -165 59
10 49 20 15 -122 -54 -161 63
11 52 21 16 -121 -53 -159 64
20 49 20 15 -122 -54 -161 63
32 46 17 12 -124 -55 -164 62
34 44 15 10 -127 -54 -166 63
23 40 13 9 -127 -52 -167 64
5 34 5 5 -127 -54 -171 63
-7 32 -11 -2 -128 -59 -176 62
-5 34 -29 -10 -132 -63 -176 63
3 37 -42 -20 -140 -64 -173 65
5 34 -54 -34 -156 -68 -176 63
-3 26 -67 -54 -176 -80 -191 54
-10 15 -78 -73 -195 -98 -210 44
-11 5 -79 -83 -207 -112 -220 39
-10 -5 -73 -83 -215 -117 -220 39
-14 -14 -68 -81 -220 -117 -218 41
-20 -20 -68 -83 -224 -117 -220 39
-25 -25 -70 -88 -226 -120 -226 33
-34 -34 -68 -93 -229 -127 -234 24
-50 -48 -61 -94 -233 -136 -243 14
-68 -59 -54 -93 -234 -142 -249 5
-79 -61 -53 -92 -232 -143 -251 1
-83 -59 -59 -93 -234 -142 -254 -0
-87 -63 -67 -95 -241 -142 -259 -1
-93 -73 -73 -98 -249 -146 -264 -5
-99 -83 -74 -101 -251 -152 -268 -13
-102 -88 -73 -102 -249 -156 -273 -20
-102 -89 -72 -103 -250 -158 -281 -24
-102 -88 -73 -107 -254 -161 -288 -24
-99 -87 -76 -114 -257 -166 -290 -23
-93 -88 -78 -122 -259 -171 -288 -24
-87 -92 -79 -125 -261 -173 -287 -27
-88 -98 -78 -122 -264 -171 -288 -29
-101 -101 -78 -118 -264 -168 -289 -29
-122 -102 -78 -117 -264 -166 -288 -29
-138 -102 -77 -118 -264 -164 -286 -29
-142 -102 -73 -117 -264 -166 -288 -29
-133 -102 -70 -114 -264 -171 -293 -29
-117 -102 -73 -112 -264 -176 -298 -29
-104 -101 -83 -114 -266 -178 -299 -31
-102 -102 -88 -117 -268 -176 -298 -34
-112 -106 -85 -118 -268 -173 -298 -35
-127 -112 -78 -117 -268 -171 -298 -34
-140 -119 -77 -116 -269 -171 -298 -33
-146 -122 -78 -112 -268 -171 -298 -34
-142 -118 -78 -110 -266 -172 -297 -35
-127 -107 -78 -112 -264 -171 -293 -29
-113 -99 -79 -118 -265 -171 -289 -23
-107 -98 -78 -117 -264 -171 -288 -24
-113 -107 -77 -109 -261 -175 -297 -37
-122 -117 -78 -98 -254 -176 -307 -49
-142 -136 -65 -85 -248 -183 -325 -67
-181 -171 -15 -54 -239 -200 -356 -98
-235 -224 67 -2 -227 -228 -404 -150
-278 -273 146 59 -205 -244 -449 -200
-299 -302 212 127 -164 -239 -480 -234
-312 -303 288 215 -98 -220 -493 -254
-333 -282 393 331 -9 -196 -496 -269
-342 -234 483 439 83 -156 -478 -264
-306 -159 506 506 161 -85 -424 -219
-215 -63 454 532 220 15 -327 -132
-103 44 387 562 288 136 -203 -23
5 156 351 630 390 273 -68 93
131 263 343 742 532 434 77 222
317 361 322 869 688 620 249 381
564 475 269 984 848 841 471 585
815 644 190 1060 1021 1109 752 839
1018 881 92 1094 1218 1435 1091 1141
1162 1148 -34 1084 1411 1787 1460 1470
1257 1395 -172 1019 1540 2097 1812 1790
1294 1592 -288 878 1548 2280 2080 2046
1265 1700 -377 659 1413 2278 2193 2182
1197 1670 -488 371 1138 2075 2114 2168
1128 1503 -657 16 742 1709 1878 2031
1060 1275 -849 -405 264 1245 1563 1826
953 1072 -992 -838 -224 760 1233 1597
786 917 -1050 -1177 -639 327 908 1358
595 784 -1041 -1355 -926 -2 611 1123
434 649 -1006 -1411 -1094 -224 371 917
325 507 -974 -1432 -1195 -383 186 743
239 351 -966 -1465 -1284 -542 5 571
149 185 -980 -1502 -1379 -720 -198 389
59 34 -987 -1524 -1465 -878 -381 224
-10 -75 -970 -1518 -1508 -967 -493 110
-54 -146 -942 -1480 -1494 -982 -547 34
-87 -201 -927 -1419 -1443 -963 -588 -33
-117 -244 -922 -1358 -1392 -947 -625 -93
-139 -268 -905 -1299 -1344 -931 -640 -127
-151 -268 -854 -1211 -1270 -883 -625 -132
-165 -259 -771 -1077 -1154 -803 -603 -131
-185 -249 -669 -922 -1021 -712 -581 -132
-204 -246 -565 -786 -905 -640 -558 -136
-205 -244 -468 -669 -800 -576 -527 -132
-187 -241 -381 -554 -691 -506 -494 -124
-156 -229 -303 -434 -576 -425 -454 -107
-131 -213 -236 -332 -484 -356 -415 -90
-122 -195 -185 -264 -425 -307 -386 -78
-131 -180 -148 -219 -383 -274 -374 -78
-146 -166 -122 -181 -342 -244 -366 -78
-157 -155 -101 -142 -302 -219 -353 -72
-156 -146 -83 -112 -278 -205 -337 -63
-146 -144 -66 -93 -266 -197 -328 -58
-137 -146 -54 -78 -254 -185 -327 -54
-135 -148 -43 -57 -236 -167 -324 -49
-137 -146 -34 -39 -224 -156 -317 -44
-139 -141 -23 -31 -223 -156 -308 -43
-142 -137 -15 -34 -224 -161 -303 -44
-150 -137 -10 -35 -214 -158 -302 -42
-156 -137 -10 -29 -200 -151 -303 -39
-151 -135 -14 -18 -192 -146 -303 -39
-132 -132 -24 -10 -190 -146 -303 -39
-112 -129 -34 -4 -184 -144 -303 -37
-107 -127 -39 0 -176 -142 -303 -34
-117 -123 -34 4 -172 -141 -301 -33
-132 -117 -24 5 -171 -137 -298 -34
-143 -113 -14 6 -167 -129 -294 -34
-151 -112 -10 10 -161 -122 -293 -34
-157 -113 -7 17 -158 -121 -293 -35
-156 -112 0 24 -156 -122 -293 -34
-145 -109 10 28 -151 -118 -291 -31
-132 -107 15 29 -146 -112 -288 -29
-125 -107 12 31 -144 -111 -287 -29
-127 -107 5 34 -146 -112 -288 -29
-129 -107 2 37 -146 -111 -290 -27
-127 -107 5 39 -142 -107 -288 -24
-125 -107 9 42 -134 -104 -281 -24
-127 -107 10 49 -127 -102 -273 -24
-130 -105 9 56 -121 -100 -266 -23
-127 -102 10 59 -117 -98 -264 -20
-117 -100 12 58 -116 -98 -265 -18
-107 -98 15 59 -117 -98 -268 -15
-102 -95 16 65 -117 -95 -271 -12
-102 -93 15 73 -112 -93 -273 -10
-103 -93 16 79 -101 -92 -275 -13
-102 -98 20 83 -93 -88 -278 -20
-101 -103 26 87 -90 -80 -279 -25
-98 -102 29 93 -88 -73 -278 -24
-94 -97 27 98 -83 -70 -274 -16
-93 -93 24 102 -78 -68 -268 -5
-97 -93 22 104 -76 -64 -262 3
-107 -93 20 107 -73 -59 -259 5
-117 -89 18 111 -65 -54 -255 5
-122 -83 15 117 -54 -49 -249 5
-121 -80 14 124 -47 -43 -242 6
-112 -78 15 132 -44 -39 -239 5
-98 -75 18 138 -40 -40 -240 4
-83 -73 24 142 -34 -39 -239 5
-70 -73 32 145 -28 -33 -234 10
-63 -73 39 151 -24 -24 -229 15
-61 -68 44 160 -18 -20 -227 18
-63 -63 49 171 -10 -20 -224 20
-68 -61 54 179 -1 -19 -216 24
-73 -63 59 185 5 -15 -210 29
-75 -61 63 191 9 -10 -208 32
-73 -54 68 200 15 -5 -205 34
-67 -45 76 209 24 -1 -195 38
-59 -39 83 215 34 5 -185 44
-52 -38 86 220 42 12 -183 50
-49 -39 88 229 49 20 -185 54
-48 -39 90 242 56 26 -182 55
-44 -39 93 254 63 29 -176 54
-38 -38 96 260 70 32 -174 52
-34 -34 102 264 78 39 -176 49
-33 -28 112 271 88 48 -174 47
-29 -24 122 283 98 54 -166 49
-19 -24 124 294 106 56 -156 55
-10 -24 117 303 112 59 -151 63
-8 -23 109 311 119 67 -150 70
-10 -24 107 322 127 78 -151 73
-8 -27 112 332 135 87 -151 71
-0 -29 117 337 142 93 -151 63
11 -26 118 340 149 97 -154 53
20 -20 117 346 156 102 -156 49
25 -18 117 358 165 109 -151 58
24 -20 117 371 176 122 -137 78
21 -21 116 380 188 137 -119 98
20 -20 117 386 195 146 -107 107
25 -17 125 393 197 146 -105 103
34 -15 137 400 200 142 -107 93
43 -13 146 406 207 144 -109 87
49 -10 146 410 215 151 -112 88
53 -4 143 415 219 156 -114 91
54 5 142 420 220 156 -112 93
54 13 144 424 221 154 -105 95
59 15 142 425 224 156 -98 98
69 11 136 425 227 161 -97 103
78 5 132 425 229 166 -98 107
82 1 133 425 229 167 -96 110
83 0 132 425 229 166 -93 112
86 0 125 423 227 165 -92 113
93 -0 117 420 224 166 -93 112
101 1 114 415 221 169 -92 108
107 5 112 410 220 171 -88 107
112 11 107 405 220 173 -85 111
117 15 102 400 220 176 -83 117
121 16 99 395 217 178 -81 121
122 15 93 390 210 176 -78 122
117 15 80 382 198 170 -77 124
107 15 68 371 181 166 -78 127
98 16 66 358 162 166 -79 128
98 20 68 346 151 166 -78 127
110 26 62 338 151 161 -75 129
127 29 44 332 156 156 -73 137
138 27 26 326 157 155 -71 146
137 29 15 317 151 156 -68 151
130 38 9 305 141 153 -63 149
127 49 0 293 132 146 -59 146
128 52 -15 281 126 141 -57 147
127 49 -29 273 122 142 -59 151
120 47 -35 266 119 143 -62 153
112 49 -34 259 112 137 -63 151
108 51 -33 248 101 124 -63 148
107 49 -39 234 88 112 -63 146
102 49 -48 222 78 107 -64 146
93 54 -54 215 73 107 -63 146
82 62 -55 209 69 106 -60 147
73 63 -54 200 63 98 -59 151
65 56 -56 186 53 87 -63 154
59 49 -59 171 44 78 -68 151
55 49 -62 159 36 73 -69 145
54 54 -63 151 29 68 -68 142
52 56 -66 143 20 62 -68 143
49 54 -73 132 10 54 -73 142
44 51 -81 121 -1 47 -80 135
39 49 -88 112 -15 39 -88 127
35 43 -91 104 -31 29 -95 123
34 34 -93 93 -44 15 -102 117
34 26 -95 79 -51 2 -110 103
34 24 -98 68 -54 -5 -117 88
31 26 -98 61 -57 -8 -123 81
24 24 -93 54 -63 -15 -127 83
12 17 -85 46 -70 -27 -130 84
0 10 -83 39 -78 -39 -132 78
-11 7 -91 38 -86 -45 -134 70
-20 5 -107 39 -93 -49 -137 68
-26 2 -122 36 -97 -54 -140 71
-29 0 -127 29 -98 -59 -142 73
-29 1 -123 22 -99 -63 -142 69
-29 -0 -117 20 -102 -68 -142 63
-33 -5 -112 21 -106 -78 -144 60
-39 -10 -107 20 -112 -88 -146 59
-46 -11 -100 15 -118 -93 -146 58
-54 -10 -93 10 -122 -93 -142 59
-63 -12 -87 8 -123 -94 -137 63
-68 -15 -83 10 -122 -98 -137 68
-67 -18 -78 11 -121 -103 -141 70
-63 -20 -73 10 -117 -107 -146 68
-60 -24 -70 9 -111 -108 -147 64
-59 -29 -68 10 -107 -107 -146 59
-59 -30 -66 13 -106 -103 -150 49
-59 -29 -63 15 -107 -98 -161 34
-60 -28 -60 15 -107 -96 -172 18
-59 -29 -59 15 -107 -98 -176 10
-57 -29 -59 16 -109 -101 -169 12
-59 -29 -59 20 -112 -102 -156 20
-62 -29 -58 24 -115 -101 -144 26
-59 -29 -59 24 -117 -102 -137 29
-50 -29 -63 20 -120 -109 -134 28
-44 -29 -68 15 -127 -122 -132 24
-48 -29 -72 11 -134 -136 -131 20
-54 -29 -73 10 -137 -146 -127 24
-55 -30 -73 10 -137 -155 -118 42
-54 -34 -73 10 -137 -166 -102 68
-58 -39 -71 10 -140 -176 -84 92
-63 -39 -68 10 -142 -176 -68 107
-62 -36 -66 9 -138 -164 -51 120
-54 -39 -68 10 -127 -151 -29 137
-49 -50 -72 12 -116 -146 -10 154
-54 -59 -73 15 -112 -146 -10 156
-64 -58 -69 16 -116 -145 -38 134
-73 -49 -63 15 -127 -142 -78 98
-76 -42 -59 14 -138 -141 -109 67
-73 -39 -59 15 -142 -137 -122 49
-65 -39 -58 17 -136 -123 -127 37
-54 -39 -54 20 -122 -102 -132 20
-43 -41 -46 23 -107 -83 -136 -2
-39 -44 -39 24 -98 -73 -132 -15
-44 -45 -36 26 -96 -72 -120 -14
-54 -44 -39 29 -98 -73 -107 -5
-62 -42 -45 33 -99 -73 -99 0
-63 -39 -49 34 -98 -73 -93 0
-62 -37 -46 32 -95 -73 -82 -1
-63 -39 -39 29 -93 -73 -68 -0
-68 -44 -32 27 -94 -74 -55 1
-73 -49 -29 24 -98 -78 -44 0
-74 -50 -30 16 -103 -84 -35 -2
-73 -49 -34 5 -107 -93 -29 -5
-72 -48 -39 -3 -107 -101 -26 -8
-73 -49 -44 -5 -107 -107 -24 -10
-74 -50 -50 -6 -109 -110 -22 -10
-73 -49 -59 -10 -112 -112 -20 -10
-72 -48 -68 -16 -115 -113 -18 -10
-73 -49 -73 -20 -117 -112 -10 -10
-75 -50 -70 -20 -119 -111 5 -10
-78 -49 -59 -20 -122 -112 20 -10
-81 -48 -48 -22 -124 -116 27 -12
-83 -49 -44 -24 -127 -122 29 -15
-84 -55 -50 -26 -130 -126 33 -19
-83 -63 -63 -29 -132 -127 39 -24
-81 -68 -75 -34 -132 -127 44 -30
-78 -68 -83 -39 -132 -127 49 -34
-74 -65 -87 -40 -132 -127 55 -35
-68 -63 -88 -39 -132 -127 59 -34
-61 -63 -88 -40 -131 -127 60 -33
-59 -63 -88 -44 -132 -127 63 -34
-65 -63 -88 -47 -136 -128 71 -36
-78 -63 -88 -49 -142 -132 83 -39
-90 -65 -88 -51 -145 -137 92 -42
-93 -68 -88 -54 -146 -142 98 -44
-86 -69 -89 -57 -146 -143 102 -45
-73 -68 -88 -59 -146 -142 107 -44
-62 -68 -85 -60 -145 -140 112 -43
-59 -68 -83 -59 -146 -142 117 -44
-60 -68 -84 -58 -150 -148 120 -49
-59 -68 -88 -59 -156 -156 122 -59
-53 -68 -94 -61 -161 -163 123 -69
-49 -68 -98 -63 -161 -166 127 -73
-51 -70 -99 -63 -157 -165 135 -69
-59 -73 -98 -63 -151 -161 146 -63
-65 -76 -97 -65 -147 -157 157 -59
-68 -78 -98 -68 -146 -156 166 -59
-71 -78 -100 -69 -146 -156 171 -60
-78 -78 -102 -68 -146 -156 176 -59
-85 -78 -104 -67 -146 -155 181 -58
-88 -78 -107 -68 -146 -156 185 -59
-84 -76 -111 -71 -147 -161 187 -60
-78 -73 -112 -73 -146 -166 190 -59
-73 -70 -111 -73 -144 -169 195 -58
-68 -68 -112 -73 -142 -171 200 -59
-63 -67 -115 -75 -142 -174 204 -62
-59 -68 -117 -78 -142 -176 210 -63
-60 -70 -117 -78 -140 -176 218 -63
-68 -73 -117 -78 -137 -176 224 -68
-81 -76 -120 -78 -135 -178 225 -78
-98 -78 -122 -78 -137 -181 224 -88
-113 -78 -120 -77 -139 -182 225 -91
-117 -78 -117 -78 -137 -181 229 -88
-107 -78 -118 -81 -133 -180 234 -86
-88 -78 -122 -83 -132 -181 244 -88
-71 -77 -124 -83 -136 -183 255 -91
-63 -78 -122 -83 -137 -185 259 -93
-65 -81 -117 -84 -131 -186 255 -94
-73 -83 -112 -83 -122 -185 254 -93
-81 -79 -106 -79 -116 -181 263 -88
-83 -73 -98 -73 -112 -176 278 -83
-75 -69 -87 -70 -106 -171 286 -80
-59 -68 -73 -68 -102 -166 288 -78
-42 -67 -58 -66 -101 -161 290 -76
-29 -63 -49 -63 -98 -156 298 -73
-26 -57 -52 -61 -89 -151 310 -71
-34 -49 -68 -59 -78 -146 322 -68
-47 -41 -85 -55 -72 -142 332 -64
-54 -34 -88 -49 -68 -137 342 -59
-49 -28 -73 -41 -61 -130 351 -55
-39 -24 -49 -34 -54 -122 361 -49
-29 -23 -30 -28 -49 -115 372 -41
-20 -24 -20 -24 -44 -112 381 -34
-11 -23 -14 -22 -35 -112 387 -30
-5 -15 -10 -20 -29 -112 390 -29
-3 -5 -6 -14 -29 -109 392 -27
0 -0 0 -5 -29 -102 395 -24
11 -1 8 6 -22 -92 400 -20
24 0 15 15 -10 -83 405 -15
31 9 18 21 -0 -76 410 -9
29 20 20 24 5 -73 415 -5
25 26 21 25 8 -72 417 -4
24 29 20 24 10 -73 415 -5
25 33 16 22 11 -74 411 -6
24 34 15 20 10 -73 410 -5
21 26 17 19 10 -71 411 -4
20 10 15 15 10 -73 410 -5
25 -3 5 8 9 -79 408 -7
34 -5 -10 0 5 -83 410 -5
40 1 -22 -9 -2 -82 417 1
34 5 -34 -24 -15 -83 420 5
20 3 -48 -44 -33 -92 411 3
10 -5 -59 -63 -49 -107 395 -5
9 -14 -62 -73 -58 -120 381 -15
10 -24 -59 -73 -63 -127 371 -24
6 -33 -57 -71 -66 -128 362 -33
0 -39 -59 -73 -68 -127 356 -39
-1 -43 -61 -78 -68 -128 354 -40
-0 -49 -59 -83 -68 -132 356 -39
-6 -60 -52 -84 -69 -138 358 -39
-20 -68 -44 -83 -68 -142 356 -44
-34 -69 -36 -82 -66 -143 349 -52
-44 -68 -29 -83 -68 -142 337 -59
-53 -72 -24 -85 -75 -142 322 -65
-63 -83 -24 -88 -83 -146 312 -73
-72 -94 -28 -91 -86 -152 307 -83
-78 -102 -34 -93 -88 -156 303 -93
-81 -106 -40 -94 -92 -158 295 -100
-83 -107 -44 -98 -98 -161 288 -102
-83 -106 -47 -105 -101 -166 285 -102
-83 -107 -49 -112 -102 -171 288 -102
-84 -111 -49 -115 -104 -173 290 -104
-88 -117 -49 -112 -107 -171 288 -107
-95 -121 -53 -108 -108 -168 283 -109
-102 -122 -63 -107 -107 -166 278 -112
-104 -122 -72 -108 -107 -164 273 -115
-102 -122 -73 -107 -107 -166 268 -117
-97 -122 -66 -106 -107 -171 262 -117
-93 -122 -59 -107 -107 -176 259 -117
-91 -122 -58 -112 -110 -178 258 -119
-93 -122 -59 -117 -112 -176 259 -122
-96 -122 -59 -119 -113 -173 259 -123
-98 -122 -59 -117 -112 -171 259 -122
-97 -122 -64 -116 -113 -170 259 -121
-98 -122 -68 -112 -112 -171 259 -122
-102 -121 -69 -109 -110 -173 259 -121
-107 -117 -68 -107 -107 -171 264 -112
-113 -115 -68 -109 -107 -170 268 -102
-117 -117 -68 -107 -107 -171 268 -102
-119 -126 -71 -106 -110 -179 259 -115
-117 -137 -78 -107 -112 -185 249 -127
-126 -156 -71 -106 -114 -198 231 -144
-161 -190 -24 -83 -112 -220 200 -176
-216 -239 60 -37 -107 -254 148 -230
-259 -283 146 15 -93 -278 98 -283
-280 -306 219 73 -61 -282 61 -320
-293 -303 298 156 0 -268 44 -342
-318 -283 401 276 90 -243 38 -359
-332 -239 488 395 185 -200 54 -356
-300 -168 507 472 265 -126 106 -313
-215 -73 454 503 327 -24 200 -229
-117 38 388 536 403 98 320 -125
-34 156 356 605 517 234 449 -15
66 269 352 719 670 394 589 110
239 371 332 849 834 581 756 264
485 485 281 968 1004 805 966 454
737 654 210 1050 1187 1075 1226 683
937 891 122 1088 1393 1399 1539 957
1084 1158 -5 1084 1597 1758 1899 1275
1200 1408 -168 1032 1752 2098 2272 1607
1275 1611 -327 917 1807 2334 2583 1890
1282 1727 -457 728 1724 2387 2737 2050
1236 1699 -595 449 1470 2212 2680 2051
1178 1522 -785 66 1047 1836 2447 1924
1119 1275 -1006 -410 512 1343 2129 1733
1024 1054 -1180 -896 -28 834 1798 1518
864 888 -1255 -1265 -473 386 1475 1289
669 747 -1241 -1457 -779 41 1176 1057
493 600 -1187 -1528 -972 -205 932 849
369 445 -1140 -1569 -1102 -390 744 674
278 283 -1123 -1611 -1206 -561 561 503
194 125 -1123 -1634 -1293 -734 357 323
117 -10 -1114 -1626 -1358 -878 171 161
61 -104 -1081 -1593 -1383 -954 55 50
24 -166 -1040 -1538 -1358 -961 -0 -24
-7 -214 -1006 -1465 -1295 -938 -39 -91
-34 -249 -977 -1387 -1226 -917 -73 -151
-51 -264 -933 -1310 -1160 -895 -84 -185
-63 -259 -864 -1211 -1075 -844 -68 -190
-87 -248 -772 -1073 -956 -763 -47 -189
-122 -239 -664 -913 -820 -673 -24 -190
-155 -236 -553 -770 -701 -601 -0 -192
-166 -234 -449 -649 -595 -537 29 -190
-158 -231 -359 -538 -491 -472 54 -188
-142 -220 -283 -429 -386 -400 83 -181
-133 -204 -218 -337 -303 -341 111 -172
-132 -185 -166 -273 -249 -298 132 -166
-134 -170 -128 -230 -211 -265 137 -169
-132 -156 -102 -195 -176 -234 137 -171
-126 -145 -81 -159 -143 -208 141 -167
-117 -137 -63 -132 -122 -195 151 -161
-113 -135 -48 -118 -110 -191 156 -161
-117 -137 -39 -112 -98 -185 156 -166
-128 -139 -32 -101 -79 -174 156 -170
-137 -137 -24 -88 -68 -166 161 -171
-141 -133 -13 -77 -67 -163 166 -172
-146 -132 -5 -73 -68 -161 166 -171
-157 -134 -1 -68 -57 -152 161 -168
-166 -137 0 -59 -44 -142 156 -166
-164 -137 6 -47 -36 -137 154 -166
-151 -137 15 -39 -34 -137 156 -166
-140 -137 24 -33 -27 -134 157 -163
-137 -137 29 -29 -20 -132 156 -161
-137 -136 32 -25 -19 -130 152 -162
-132 -137 34 -24 -24 -127 146 -166
-123 -139 37 -23 -26 -119 141 -169
-122 -142 39 -20 -24 -112 137 -171
-130 -140 40 -13 -18 -111 136 -172
-137 -132 44 -5 -10 -112 137 -171
-133 -123 50 -1 1 -108 140 -168
-122 -117 54 0 10 -102 142 -166
-116 -116 53 2 12 -100 141 -168
-117 -117 49 5 10 -102 137 -171
-118 -117 49 8 10 -101 132 -172
-117 -117 54 10 15 -98 132 -171
-120 -117 61 14 22 -95 136 -171
-132 -117 68 20 29 -93 142 -171
-144 -115 74 26 35 -90 145 -169
-146 -112 78 29 39 -88 146 -166
-134 -109 77 28 40 -88 146 -163
-117 -107 73 29 39 -88 146 -161
-105 -105 67 35 39 -85 146 -158
-102 -102 63 44 44 -83 146 -156
-107 -101 60 50 53 -82 147 -157
-117 -102 59 54 59 -78 151 -161
-127 -104 59 57 59 -70 157 -163
-127 -102 59 63 59 -63 161 -161
-110 -97 59 69 63 -62 162 -156
-83 -93 59 73 68 -63 161 -151
-62 -93 58 75 70 -62 161 -150
-59 -93 59 78 73 -59 161 -151
-70 -92 63 82 82 -55 162 -152
-83 -93 73 88 93 -49 166 -151
-87 -97 85 95 99 -42 170 -150
-83 -98 93 102 102 -39 171 -151
-80 -92 96 110 106 -40 169 -153
-83 -83 98 117 112 -39 171 -151
-90 -77 102 124 118 -33 177 -146
-93 -73 107 132 122 -24 181 -142
-89 -68 112 141 128 -20 178 -141
-83 -63 117 151 137 -20 176 -142
-81 -61 122 159 146 -19 178 -140
-83 -63 127 166 151 -15 181 -137
-85 -63 131 173 155 -10 180 -136
-83 -59 137 181 161 -5 181 -137
-76 -53 144 189 171 -1 188 -136
-68 -49 151 195 181 5 195 -132
-61 -48 154 200 188 12 194 -126
-59 -49 156 210 195 20 190 -122
-58 -49 158 223 202 26 191 -121
-54 -49 161 234 210 29 195 -122
-46 -48 161 240 217 32 195 -124
-39 -44 161 244 224 39 190 -127
-35 -38 164 252 234 48 188 -129
-29 -34 171 264 244 54 195 -127
-19 -33 178 275 252 56 204 -120
-10 -34 181 283 259 59 210 -112
-7 -34 181 292 266 67 210 -106
-10 -34 185 303 273 78 210 -102
-15 -35 196 314 280 87 213 -100
-20 -34 210 322 288 93 220 -98
-24 -27 220 328 296 98 224 -98
-20 -20 224 337 303 102 224 -98
-5 -18 225 347 309 106 221 -97
15 -20 224 356 317 112 220 -93
31 -21 223 361 326 120 222 -89
39 -20 224 366 332 127 224 -88
40 -20 228 373 334 129 226 -92
39 -24 234 381 337 132 229 -98
38 -29 236 386 343 140 231 -101
39 -29 234 390 351 151 229 -98
40 -20 233 395 357 159 226 -89
39 -5 239 400 361 161 229 -78
36 9 247 404 366 162 238 -67
39 15 249 405 371 166 244 -59
49 12 244 405 375 172 241 -57
59 5 239 405 376 176 234 -63
63 1 239 405 376 177 229 -71
63 0 239 405 376 176 229 -73
66 0 234 405 374 175 231 -67
73 -0 229 405 371 176 234 -59
81 1 229 403 367 179 239 -53
88 5 229 400 366 181 244 -49
94 11 225 397 367 183 245 -44
98 15 220 395 366 185 244 -39
101 16 216 393 362 186 244 -36
102 15 210 390 356 185 244 -34
103 15 199 384 351 182 242 -32
102 15 190 376 346 181 239 -29
102 16 190 366 341 184 236 -27
107 20 195 356 337 185 234 -29
120 26 194 348 336 181 232 -32
137 29 185 342 337 176 229 -34
148 27 175 336 334 174 225 -34
146 29 171 327 327 176 224 -34
133 38 172 317 316 175 228 -33
117 49 171 307 307 171 234 -29
105 52 165 299 301 168 237 -22
98 49 156 293 298 171 234 -15
100 47 151 286 295 176 228 -11
112 49 151 278 288 176 224 -10
129 51 152 267 277 169 222 -10
137 49 146 254 264 161 220 -10
126 49 134 238 252 157 216 -10
102 54 122 224 244 156 215 -10
78 62 115 212 237 154 216 -9
63 63 112 200 229 146 215 -5
59 56 108 187 219 135 208 -2
63 49 102 176 210 127 200 -5
70 49 96 168 203 122 196 -12
73 54 93 161 195 117 195 -15
70 56 93 151 186 110 191 -13
63 54 93 137 176 102 181 -15
55 51 91 123 165 95 168 -23
49 49 88 112 151 88 156 -29
42 43 84 103 133 77 148 -27
34 34 83 93 117 63 142 -24
27 26 82 80 107 50 135 -29
24 24 78 68 102 44 127 -39
24 26 70 58 96 41 119 -45
24 24 63 49 88 34 112 -44
19 17 58 38 78 22 107 -43
10 10 54 29 68 10 102 -49
-2 5 46 24 58 0 94 -58
-15 -0 34 20 49 -10 83 -63
-25 -6 24 12 43 -22 71 -63
-29 -10 20 0 39 -29 63 -63
-29 -10 23 -8 36 -28 58 -68
-29 -10 29 -10 34 -24 54 -73
-33 -15 34 -9 30 -24 47 -76
-39 -20 39 -10 24 -29 39 -78
-44 -21 42 -15 18 -33 33 -84
-49 -20 44 -20 15 -34 29 -93
-55 -21 44 -21 15 -35 26 -98
-59 -24 44 -20 15 -39 20 -98
-56 -26 46 -21 11 -45 14 -96
-49 -29 49 -24 5 -49 10 -98
-42 -34 50 -28 1 -51 10 -102
-39 -39 49 -29 -0 -49 10 -107
-38 -40 48 -28 -2 -46 7 -110
-39 -39 49 -29 -5 -44 0 -112
-39 -38 49 -32 -8 -46 -6 -115
-39 -39 49 -34 -10 -49 -10 -117
-41 -39 49 -33 -10 -52 -11 -118
-49 -39 49 -29 -10 -54 -10 -117
-58 -39 49 -25 -10 -55 -10 -116
-59 -39 49 -24 -10 -54 -10 -117
-50 -37 48 -24 -10 -52 -11 -119
-44 -34 49 -24 -10 -49 -10 -122
-47 -31 51 -22 -10 -48 -9 -123
-54 -29 54 -20 -10 -49 -10 -122
-55 -28 56 -18 -9 -53 -15 -121
-54 -29 59 -15 -10 -59 -20 -122
-58 -31 63 -11 -13 -63 -22 -126
-63 -29 68 -10 -15 -59 -20 -127
-62 -23 70 -12 -14 -50 -15 -123
-54 -20 68 -15 -10 -44 -10 -117
-49 -23 65 -16 -6 -45 -11 -114
-54 -29 63 -15 -5 -49 -20 -117
-63 -31 63 -15 -5 -50 -31 -122
-68 -29 63 -15 -5 -49 -34 -127
-67 -28 62 -15 -4 -49 -29 -129
-63 -29 59 -15 -5 -49 -24 -127
-61 -29 58 -17 -7 -49 -27 -124
-63 -29 59 -20 -10 -49 -34 -122
-66 -31 63 -23 -11 -51 -37 -122
-68 -34 68 -24 -10 -54 -34 -122
-72 -35 70 -24 -9 -55 -30 -121
-78 -34 68 -24 -10 -54 -29 -122
-83 -32 63 -24 -10 -54 -31 -124
-83 -29 59 -24 -10 -54 -34 -127
-76 -27 58 -23 -9 -52 -36 -128
-68 -29 59 -20 -10 -49 -39 -127
-63 -34 60 -16 -14 -48 -43 -126
-63 -39 59 -15 -20 -49 -44 -127
-67 -40 54 -21 -26 -51 -43 -129
-73 -39 44 -29 -29 -54 -44 -132
-79 -38 31 -34 -29 -57 -49 -136
-83 -39 24 -34 -29 -59 -54 -137
-84 -40 28 -33 -29 -58 -57 -134
-83 -39 39 -34 -29 -54 -59 -127
-83 -38 50 -37 -28 -49 -60 -120
-83 -39 54 -39 -29 -44 -59 -117
-81 -40 52 -39 -31 -42 -57 -119
-78 -39 49 -39 -34 -44 -59 -127
-75 -38 46 -41 -36 -49 -68 -136
-73 -39 44 -44 -39 -54 -78 -142
-72 -44 43 -46 -42 -57 -82 -143
-68 -49 44 -49 -44 -59 -83 -142
-63 -51 45 -54 -44 -59 -85 -141
-59 -49 44 -59 -44 -59 -88 -142
-58 -46 41 -60 -44 -59 -90 -142
-59 -44 39 -59 -44 -59 -93 -142
-59 -44 38 -60 -43 -59 -98 -141
-59 -44 39 -63 -44 -59 -102 -142
-61 -47 39 -66 -50 -58 -104 -145
-63 -54 39 -68 -59 -59 -107 -151
-63 -63 39 -71 -65 -62 -113 -158
-63 -68 39 -73 -68 -63 -117 -161
-64 -65 39 -74 -68 -61 -112 -157
-68 -59 39 -73 -68 -59 -102 -151
-71 -55 39 -73 -68 -58 -95 -147
-73 -54 39 -73 -68 -59 -93 -146
-74 -54 36 -73 -70 -59 -94 -146
-78 -54 29 -73 -73 -59 -98 -146
-84 -56 22 -75 -76 -59 -103 -146
-88 -59 20 -78 -78 -59 -107 -146
-89 -60 23 -79 -79 -59 -108 -146
-88 -59 29 -78 -78 -59 -107 -146
-88 -59 35 -76 -77 -59 -107 -145
-88 -59 39 -78 -78 -59 -107 -146
-87 -59 41 -83 -81 -59 -106 -148
-83 -59 39 -88 -83 -59 -107 -151
-79 -59 35 -91 -84 -59 -110 -152
-78 -59 34 -93 -88 -59 -112 -151
-78 -60 36 -95 -94 -59 -113 -151
-78 -63 34 -98 -98 -59 -117 -156
-77 -66 27 -99 -98 -61 -123 -163
-78 -68 20 -98 -98 -63 -127 -166
-79 -68 19 -97 -98 -64 -125 -162
-78 -68 20 -98 -98 -63 -122 -156
-74 -68 19 -100 -96 -62 -122 -154
-73 -68 15 -102 -98 -63 -122 -156
-78 -67 13 -102 -104 -65 -120 -159
-88 -68 15 -102 -107 -68 -122 -161
-95 -69 17 -103 -104 -69 -129 -163
-93 -68 20 -102 -98 -68 -132 -161
-80 -62 27 -98 -95 -64 -124 -153
-63 -54 39 -93 -93 -59 -112 -142
-49 -49 50 -89 -87 -55 -107 -134
-44 -49 54 -88 -83 -54 -112 -132
-44 -52 47 -88 -84 -55 -120 -137
-39 -54 34 -88 -88 -59 -127 -146
-27 -54 19 -89 -89 -63 -132 -155
-15 -49 10 -88 -88 -63 -132 -156
-9 -38 10 -84 -85 -57 -125 -146
-10 -24 20 -78 -78 -44 -112 -132
-12 -12 37 -70 -65 -28 -98 -120
-15 -5 54 -63 -54 -15 -88 -112
-17 -4 64 -57 -48 -7 -82 -106
-15 -5 68 -54 -44 -5 -78 -102
-9 -3 68 -52 -36 -5 -73 -99
-5 5 68 -49 -29 -5 -68 -98
-4 15 70 -41 -28 -2 -65 -96
0 20 78 -29 -29 5 -63 -93
10 19 91 -17 -24 14 -59 -88
20 20 102 -10 -15 20 -54 -83
22 29 106 -7 -8 23 -50 -77
15 39 107 -5 -5 24 -49 -73
7 42 108 -4 -4 25 -50 -72
5 39 107 -5 -5 24 -54 -73
6 36 104 -7 -7 23 -58 -74
5 34 102 -10 -10 24 -59 -73
3 30 100 -12 -11 26 -59 -72
5 24 93 -15 -10 24 -59 -73
18 22 82 -18 -7 19 -57 -74
39 24 73 -20 -5 15 -49 -73
55 27 70 -22 -7 14 -38 -71
54 24 63 -34 -20 10 -39 -73
41 16 41 -57 -43 -2 -58 -82
29 5 10 -83 -68 -20 -83 -93
27 -6 -13 -99 -85 -34 -99 -98
29 -15 -20 -102 -93 -39 -102 -98
29 -21 -16 -100 -96 -39 -101 -97
29 -20 -10 -102 -98 -39 -102 -98
30 -18 -6 -107 -99 -42 -107 -103
24 -24 -0 -112 -102 -49 -117 -112
5 -42 8 -113 -106 -60 -129 -126
-20 -63 15 -112 -107 -73 -142 -142
-37 -75 18 -111 -105 -82 -151 -153
-44 -78 15 -112 -107 -83 -156 -156
-48 -76 9 -114 -114 -77 -156 -152
-54 -73 5 -117 -122 -68 -151 -146
-61 -69 4 -120 -124 -61 -144 -143
-68 -68 5 -122 -122 -59 -142 -146
-78 -72 3 -123 -123 -63 -149 -153
-93 -78 -5 -127 -127 -73 -161 -161
-107 -84 -15 -134 -130 -85 -169 -167
-112 -88 -20 -142 -132 -93 -171 -171
-107 -93 -18 -145 -135 -95 -170 -174
-98 -98 -10 -142 -137 -93 -171 -176
-92 -101 -4 -138 -137 -90 -172 -176
-93 -102 -0 -137 -137 -88 -171 -176
-99 -102 5 -138 -137 -87 -169 -176
-107 -102 15 -137 -137 -88 -171 -176
-111 -102 25 -136 -136 -93 -176 -176
-112 -102 24 -137 -137 -98 -181 -176
-111 -102 11 -142 -140 -100 -182 -178
-112 -102 0 -146 -142 -98 -181 -181
-116 -102 -3 -147 -142 -95 -181 -182
-117 -102 -0 -146 -142 -93 -181 -181
-113 -102 -0 -146 -144 -91 -181 -180
-107 -102 0 -142 -142 -88 -181 -181
-105 -102 2 -137 -139 -86 -182 -183
-107 -102 -0 -137 -137 -83 -181 -181
-113 -104 -8 -146 -141 -83 -180 -177
-117 -107 -15 -151 -142 -83 -181 -176
-118 -116 -14 -147 -141 -86 -189 -185
-117 -127 -5 -137 -137 -88 -200 -195
-128 -145 19 -126 -138 -98 -215 -208
-161 -171 68 -102 -137 -117 -234 -229
-211 -207 143 -57 -128 -143 -266 -268
-254 -244 224 5 -102 -161 -307 -317
-286 -277 307 82 -58 -167 -353 -370
-317 -298 400 176 5 -161 -390 -415
-348 -296 502 286 89 -140 -406 -443
-351 -254 571 381 176 -93 -386 -434
-301 -171 568 431 244 -17 -325 -380
-205 -63 503 439 288 78 -229 -288
-93 54 435 461 350 196 -104 -174
24 171 405 542 468 342 39 -49
170 268 406 687 635 502 185 77
366 332 395 839 791 649 322 200
598 402 350 952 920 806 486 349
825 556 278 1016 1070 1045 737 576
1025 822 191 1065 1293 1408 1099 901
1197 1128 83 1104 1543 1821 1504 1270
1328 1380 -42 1081 1699 2140 1847 1590
1387 1538 -166 932 1675 2265 2055 1797
1365 1605 -280 674 1491 2203 2117 1883
1304 1572 -410 371 1216 2007 2046 1865
1243 1435 -575 49 874 1706 1864 1764
1167 1236 -752 -337 444 1299 1592 1592
1028 1042 -891 -782 -49 820 1265 1368
825 888 -961 -1177 -503 366 927 1123
617 761 -970 -1403 -813 30 634 894
464 630 -942 -1470 -972 -176 415 703
372 480 -911 -1479 -1059 -322 247 538
298 312 -898 -1504 -1148 -478 73 366
212 147 -903 -1541 -1248 -648 -119 189
117 10 -898 -1558 -1328 -786 -283 39
31 -88 -874 -1541 -1360 -858 -383 -62
-39 -161 -844 -1494 -1343 -874 -439 -132
-94 -220 -831 -1432 -1298 -873 -491 -196
-127 -259 -825 -1372 -1250 -869 -532 -249
-132 -270 -803 -1315 -1200 -850 -540 -273
-122 -259 -752 -1236 -1123 -795 -517 -273
-121 -246 -679 -1117 -1011 -713 -492 -273
-137 -239 -590 -972 -883 -625 -473 -278
-161 -239 -494 -831 -769 -554 -455 -283
-176 -239 -400 -703 -664 -488 -429 -278
-179 -238 -317 -585 -560 -422 -404 -270
-171 -229 -244 -473 -454 -351 -371 -254
-159 -214 -173 -377 -366 -291 -333 -237
-146 -195 -107 -307 -303 -244 -298 -224
-138 -179 -55 -257 -256 -209 -279 -224
-132 -166 -24 -215 -215 -176 -268 -224
-126 -155 -7 -175 -180 -148 -254 -219
-117 -146 5 -146 -161 -132 -239 -210
-112 -144 19 -130 -152 -126 -232 -208
-117 -146 29 -122 -142 -122 -234 -210
-132 -148 35 -110 -126 -113 -235 -211
-146 -146 39 -98 -117 -107 -229 -210
-150 -141 46 -88 -117 -105 -220 -210
-146 -137 54 -83 -117 -102 -215 -210
-144 -136 59 -75 -104 -93 -214 -208
-146 -137 59 -63 -88 -83 -215 -205
-148 -137 60 -48 -77 -78 -215 -205
-146 -137 63 -39 -73 -78 -215 -205
-144 -138 70 -33 -66 -76 -215 -203
-146 -137 78 -29 -59 -73 -215 -200
-148 -133 87 -25 -55 -71 -213 -199
-142 -127 93 -24 -54 -68 -210 -200
-128 -123 93 -23 -50 -60 -206 -200
-117 -122 88 -20 -44 -54 -205 -200
-115 -122 83 -13 -41 -53 -205 -201
-117 -122 83 -5 -39 -54 -205 -200
-116 -123 86 -1 -34 -50 -203 -197
-112 -127 83 0 -29 -44 -200 -195
-112 -134 72 2 -27 -43 -199 -195
-117 -137 63 5 -29 -44 -200 -195
-119 -132 65 8 -29 -43 -202 -192
-117 -122 78 10 -24 -39 -200 -190
-115 -112 92 14 -17 -36 -193 -190
-117 -107 98 20 -10 -34 -185 -190
-121 -110 98 27 -4 -33 -178 -188
-122 -117 98 29 0 -34 -176 -185
-117 -124 100 28 2 -36 -176 -183
-112 -127 102 29 -0 -34 -176 -181
-111 -122 101 35 -1 -28 -176 -175
-112 -112 98 44 5 -24 -176 -166
-113 -104 96 50 16 -23 -175 -159
-112 -102 98 54 24 -20 -171 -156
-110 -103 103 57 27 -12 -163 -154
-107 -102 107 63 29 -5 -156 -151
-102 -97 108 69 34 -3 -152 -146
-98 -93 107 73 39 -5 -151 -142
-100 -93 107 75 41 -4 -151 -141
-107 -93 107 78 44 -0 -151 -142
-112 -89 108 82 52 5 -148 -143
-107 -83 112 88 63 10 -142 -142
-92 -80 118 95 70 16 -135 -141
-73 -78 122 102 73 20 -132 -142
-61 -75 123 108 77 20 -133 -143
-63 -73 122 112 83 20 -132 -142
-79 -73 123 116 89 25 -126 -137
-98 -73 127 122 93 34 -122 -132
-109 -69 131 131 99 40 -121 -129
-107 -63 137 142 107 44 -117 -127
-95 -61 145 150 116 48 -108 -122
-78 -63 156 156 122 54 -102 -117
-63 -63 165 162 126 59 -102 -115
-54 -59 171 171 132 63 -102 -117
-50 -53 171 178 141 65 -95 -117
-49 -49 166 181 151 68 -88 -112
-49 -48 159 183 159 72 -87 -106
-49 -49 156 190 166 78 -88 -102
-48 -49 158 203 173 84 -84 -101
-44 -49 161 215 181 88 -78 -102
-40 -48 161 221 188 93 -76 -102
-39 -44 161 224 195 102 -78 -102
-39 -38 166 230 203 112 -76 -103
-34 -34 176 239 210 117 -68 -102
-21 -33 185 247 215 116 -59 -99
-10 -34 190 254 220 117 -54 -93
-8 -34 191 262 226 125 -54 -87
-10 -34 195 273 234 137 -54 -83
-8 -35 202 282 241 146 -51 -80
-0 -34 210 288 249 151 -44 -78
11 -27 214 292 257 156 -34 -78
20 -20 215 298 264 161 -24 -78
26 -18 215 307 270 165 -15 -77
29 -20 215 317 278 171 -10 -73
28 -22 214 325 287 179 -9 -69
29 -20 215 332 293 185 -10 -68
35 -17 219 340 295 187 -10 -69
44 -15 224 346 298 190 -5 -68
53 -13 225 349 304 199 2 -64
59 -10 220 351 312 210 5 -59
61 -7 213 355 316 216 4 -55
59 -5 210 361 317 215 5 -54
56 -4 211 365 318 213 12 -53
59 -5 210 366 322 215 20 -49
68 -6 204 366 325 220 22 -43
78 -5 200 366 327 224 20 -39
83 -3 202 365 327 225 21 -36
83 0 205 361 327 224 24 -34
82 1 203 356 325 223 27 -31
83 -0 200 351 322 224 29 -29
85 1 200 346 318 223 32 -29
88 5 200 342 317 220 34 -29
92 11 195 337 318 216 34 -25
98 15 190 332 317 215 34 -20
106 15 187 327 313 216 36 -16
117 15 181 322 307 215 39 -15
128 15 168 315 300 210 40 -14
132 15 156 307 293 205 39 -10
127 16 153 298 285 203 40 -5
117 20 156 288 278 200 44 0
109 26 155 279 274 192 48 5
107 29 146 273 273 185 49 10
107 27 136 269 270 183 48 14
107 29 132 264 264 185 49 15
110 38 131 255 256 184 53 16
117 49 127 244 249 181 59 20
125 52 115 234 243 180 63 27
127 49 102 229 239 185 63 34
121 47 94 226 235 189 62 36
112 49 93 220 229 185 63 34
105 48 93 209 218 173 64 31
98 39 88 195 205 161 63 29
87 31 79 183 195 156 60 29
78 34 73 176 190 156 59 29
79 49 75 170 188 154 60 30
88 63 83 161 185 146 59 34
97 67 89 149 178 135 52 37
98 63 88 137 171 127 44 34
90 56 78 129 164 122 40 28
78 49 63 122 156 117 39 24
65 40 49 113 146 110 38 25
54 34 44 102 137 102 34 24
46 34 48 93 128 97 29 22
39 39 59 88 117 93 24 24
32 40 69 83 104 85 20 32
24 34 73 73 93 73 15 34
16 26 67 60 87 61 8 18
10 24 54 49 83 54 0 -10
8 26 40 41 77 51 -8 -30
5 24 34 34 68 44 -15 -34
-1 17 40 24 58 32 -19 -27
-10 10 54 15 49 20 -20 -20
-20 7 65 11 40 14 -21 -16
-29 5 68 10 34 10 -24 -15
-36 0 63 7 31 5 -29 -17
-39 -5 54 0 29 0 -34 -24
-38 -8 45 -8 26 -2 -38 -35
-39 -10 39 -10 24 -5 -44 -44
-44 -15 37 -7 22 -12 -52 -47
-49 -20 39 -5 20 -20 -59 -49
-51 -21 42 -7 17 -24 -61 -53
-49 -20 44 -10 15 -24 -59 -59
-48 -21 44 -12 15 -25 -57 -61
-49 -24 44 -10 15 -29 -59 -59
-51 -26 46 -9 13 -34 -64 -57
-54 -29 49 -10 10 -39 -68 -59
-60 -38 50 -13 9 -43 -71 -63
-68 -49 49 -15 10 -44 -73 -68
-75 -57 48 -15 10 -42 -76 -71
-78 -59 49 -15 10 -39 -78 -73
-73 -55 51 -15 10 -38 -78 -72
-63 -49 54 -15 10 -39 -78 -68
-56 -43 57 -13 10 -42 -78 -62
-63 -39 59 -10 10 -44 -78 -59
-80 -39 59 -8 10 -45 -78 -61
-93 -39 59 -10 10 -44 -78 -68
-96 -39 59 -14 10 -43 -78 -76
-93 -39 59 -15 10 -44 -78 -83
-90 -40 58 -13 10 -46 -77 -85
-83 -39 54 -10 10 -49 -78 -83
-71 -37 48 -10 10 -54 -82 -79
-63 -39 44 -10 10 -59 -88 -78
-67 -44 40 -10 8 -62 -90 -84
-73 -49 34 -10 5 -59 -88 -93
-70 -50 25 -13 4 -52 -83 -99
-63 -49 20 -15 5 -49 -78 -98
-67 -50 26 -12 9 -51 -78 -89
-88 -49 44 -5 15 -54 -83 -78
-112 -44 63 2 21 -52 -89 -70
-122 -39 73 5 24 -49 -88 -68
-111 -38 69 2 22 -48 -80 -68
-88 -39 59 -5 15 -49 -73 -68
-68 -39 51 -12 6 -49 -75 -67
-63 -39 49 -15 0 -49 -83 -68
-73 -41 53 -15 -1 -51 -88 -71
-93 -44 59 -15 -0 -54 -88 -73
-111 -45 62 -15 1 -55 -85 -73
-117 -44 59 -15 0 -54 -83 -73
-106 -42 53 -14 -1 -54 -83 -75
-83 -39 49 -15 -0 -54 -83 -78
-62 -37 49 -18 1 -54 -84 -78
-54 -39 49 -20 0 -54 -88 -78
-58 -46 46 -21 -4 -57 -95 -81
-63 -54 39 -24 -10 -63 -102 -88
-64 -58 31 -31 -16 -69 -108 -96
-63 -59 24 -39 -20 -73 -112 -102
-68 -59 22 -44 -20 -76 -109 -102
-78 -59 24 -44 -20 -78 -98 -98
-88 -59 29 -43 -21 -81 -84 -92
-93 -59 34 -44 -24 -83 -78 -88
-93 -58 35 -47 -27 -84 -84 -87
-93 -59 34 -49 -29 -83 -93 -88
-93 -60 32 -49 -31 -82 -97 -88
-93 -59 29 -49 -34 -83 -98 -88
-93 -58 26 -49 -36 -87 -101 -90
-93 -59 24 -49 -39 -93 -107 -93
-93 -63 23 -48 -42 -97 -110 -94
-93 -68 24 -49 -44 -98 -107 -93
-92 -70 25 -53 -44 -98 -103 -91
-93 -68 24 -59 -44 -98 -102 -88
-95 -65 22 -62 -44 -98 -104 -85
-98 -63 20 -63 -44 -98 -107 -83
-100 -62 18 -64 -45 -99 -108 -82
-102 -63 15 -68 -49 -102 -107 -83
-105 -66 12 -73 -54 -105 -106 -85
-107 -68 10 -78 -59 -107 -107 -88
-103 -69 6 -79 -61 -107 -108 -90
-93 -68 -0 -78 -63 -107 -107 -93
-83 -68 -7 -77 -65 -107 -106 -96
-78 -68 -10 -78 -68 -107 -107 -98
-77 -68 -6 -81 -69 -107 -110 -99
-78 -68 -0 -83 -68 -107 -112 -98
-77 -68 4 -83 -67 -107 -112 -97
-73 -68 5 -83 -68 -107 -112 -98
-69 -68 6 -86 -70 -107 -115 -99
-68 -68 10 -88 -73 -107 -117 -98
-71 -70 12 -88 -76 -106 -117 -96
-78 -73 10 -88 -78 -107 -117 -98
-89 -76 4 -90 -78 -109 -118 -107
-102 -78 0 -93 -78 -112 -117 -117
-114 -78 -1 -96 -79 -113 -114 -120
-117 -78 -0 -98 -78 -112 -112 -117
-108 -78 -0 -100 -76 -111 -113 -110
-93 -78 0 -102 -78 -112 -112 -102
-80 -77 2 -102 -84 -114 -110 -95
-73 -78 5 -102 -88 -117 -112 -93
-72 -80 7 -102 -84 -119 -119 -98
-73 -78 10 -98 -78 -117 -122 -107
-74 -71 15 -90 -75 -112 -114 -113
-73 -63 20 -83 -73 -107 -102 -112
-72 -59 23 -79 -68 -104 -98 -105
-73 -59 24 -78 -63 -102 -102 -93
-74 -58 26 -76 -61 -100 -105 -80
-68 -54 29 -73 -59 -98 -102 -73
-54 -47 26 -72 -55 -97 -97 -76
-39 -39 15 -73 -54 -98 -93 -83
-29 -31 2 -72 -58 -100 -91 -88
-24 -24 0 -68 -59 -98 -88 -88
-23 -17 15 -61 -53 -92 -83 -86
-24 -10 39 -54 -44 -83 -78 -83
-25 -6 58 -48 -39 -76 -73 -78
-20 -5 68 -44 -34 -73 -68 -73
-8 -3 70 -40 -25 -73 -63 -70
5 5 68 -34 -15 -73 -59 -68
14 16 66 -25 -11 -70 -57 -66
20 20 68 -15 -10 -63 -54 -63
23 14 76 -6 -4 -55 -50 -59
20 5 83 -0 5 -49 -44 -54
10 4 86 3 12 -46 -39 -48
0 10 88 5 15 -44 -34 -44
0 16 92 8 16 -41 -30 -43
10 20 98 10 15 -39 -29 -44
21 23 102 10 13 -37 -29 -45
24 24 102 10 10 -34 -29 -44
20 21 96 9 10 -32 -28 -43
15 15 78 5 10 -34 -29 -44
17 13 52 -2 9 -40 -31 -45
24 15 29 -10 5 -44 -29 -44
29 18 15 -19 -4 -45 -25 -42
24 15 5 -34 -20 -49 -29 -44
11 6 -8 -54 -41 -61 -44 -53
0 -5 -20 -73 -59 -78 -63 -63
-5 -15 -24 -83 -69 -92 -73 -68
-10 -24 -20 -83 -73 -98 -73 -68
-19 -33 -18 -81 -76 -98 -71 -67
-29 -39 -20 -83 -78 -98 -73 -68
-35 -44 -21 -88 -78 -100 -79 -72
-44 -54 -15 -93 -78 -107 -88 -78
-60 -68 -4 -94 -79 -116 -97 -86
-78 -78 5 -93 -78 -122 -102 -93
-86 -79 8 -92 -76 -123 -104 -97
-83 -78 5 -93 -78 -122 -107 -98
-80 -83 -1 -95 -86 -123 -112 -98
-83 -93 -5 -98 -93 -127 -117 -102
-91 -102 -6 -101 -95 -133 -120 -111
-98 -107 -5 -102 -93 -137 -122 -122
-101 -108 -4 -103 -94 -139 -127 -130
-102 -107 -5 -107 -98 -142 -132 -132
-102 -106 -8 -116 -101 -147 -134 -131
-102 -107 -10 -127 -102 -151 -132 -132
-103 -111 -10 -133 -104 -152 -131 -135
-107 -117 -10 -132 -107 -151 -132 -137
-115 -121 -13 -129 -109 -148 -133 -137
-122 -122 -20 -127 -112 -146 -132 -137
-125 -122 -25 -128 -115 -144 -130 -137
-122 -122 -24 -127 -117 -146 -132 -137
-117 -122 -21 -126 -117 -151 -137 -137
-112 -122 -24 -127 -117 -156 -142 -137
-110 -122 -34 -133 -120 -158 -143 -139
-112 -122 -39 -137 -122 -156 -142 -142
-119 -122 -33 -136 -122 -153 -142 -143
-127 -122 -24 -132 -122 -151 -142 -142
-133 -122 -21 -128 -123 -151 -143 -141
-137 -122 -20 -122 -122 -151 -142 -142
-142 -122 -13 -118 -118 -152 -141 -141
-146 -122 -0 -117 -112 -151 -137 -132
-152 -124 11 -121 -110 -151 -133 -123
-156 -127 20 -117 -107 -151 -132 -122
-157 -135 27 -105 -104 -154 -140 -138
-156 -146 34 -88 -98 -156 -151 -161
-167 -167 57 -69 -92 -165 -171 -189
-200 -200 112 -34 -83 -181 -200 -224
-251 -242 197 23 -66 -199 -239 -269
-293 -273 283 93 -34 -200 -273 -307
-316 -284 359 173 17 -180 -294 -332
-322 -273 434 264 88 -151 -298 -342
-317 -242 514 368 177 -114 -282 -338
-283 -181 561 454 268 -54 -234 -303
-205 -91 541 499 345 37 -149 -228
-88 15 464 512 405 151 -34 -122
39 129 387 546 485 286 105 0
166 249 346 630 615 449 264 137
315 366 331 760 789 641 439 291
512 468 303 888 952 834 620 459
750 579 245 977 1081 1027 821 651
982 752 161 1011 1206 1255 1075 888
1169 1000 57 1007 1364 1551 1396 1182
1299 1255 -73 966 1519 1865 1733 1489
1366 1436 -217 860 1572 2075 1993 1734
1358 1514 -346 649 1450 2085 2104 1860
1284 1501 -451 353 1178 1903 2057 1864
1187 1406 -566 29 834 1607 1890 1777
1101 1238 -718 -300 467 1262 1653 1632
1016 1040 -878 -659 68 874 1377 1445
889 860 -991 -1037 -352 453 1073 1224
708 712 -1031 -1343 -727 54 761 987
516 581 -1014 -1495 -982 -244 487 765
361 444 -972 -1519 -1109 -420 283 581
256 298 -934 -1507 -1169 -535 131 425
171 146 -917 -1514 -1226 -659 -24 268
84 3 -918 -1529 -1292 -802 -195 114
0 -107 -908 -1524 -1343 -913 -332 -5
-63 -178 -875 -1491 -1350 -953 -398 -75
-102 -224 -834 -1431 -1309 -932 -420 -122
-128 -263 -807 -1357 -1241 -900 -446 -176
-146 -288 -786 -1284 -1172 -878 -473 -224
-156 -292 -750 -1211 -1104 -852 -475 -244
-161 -278 -688 -1114 -1016 -795 -449 -239
-171 -265 -611 -982 -904 -713 -424 -235
-185 -259 -527 -834 -786 -625 -405 -239
-197 -258 -439 -702 -684 -554 -384 -244
-195 -254 -351 -590 -586 -488 -351 -239
-185 -248 -271 -486 -484 -421 -315 -227
-171 -234 -205 -386 -381 -351 -273 -205
-163 -216 -150 -302 -300 -292 -232 -182
-161 -195 -107 -244 -249 -249 -200 -166
-167 -179 -75 -205 -215 -216 -188 -165
-176 -166 -54 -171 -185 -185 -181 -166
-181 -155 -38 -136 -158 -159 -168 -161
-176 -146 -24 -112 -142 -146 -151 -151
-166 -144 -8 -101 -133 -144 -144 -147
-161 -146 5 -98 -122 -142 -146 -146
-163 -148 15 -90 -106 -133 -147 -144
-166 -146 24 -78 -98 -127 -142 -142
-162 -141 35 -67 -98 -126 -134 -142
-156 -137 44 -63 -98 -127 -132 -142
-154 -136 49 -58 -86 -120 -134 -140
-156 -137 49 -49 -73 -112 -137 -137
-154 -137 51 -37 -67 -108 -137 -137
-146 -137 54 -29 -68 -107 -137 -137
-138 -137 58 -23 -65 -104 -137 -135
-137 -137 59 -20 -59 -102 -137 -132
-141 -135 60 -17 -55 -102 -135 -131
-142 -132 63 -15 -54 -102 -132 -132
-140 -131 67 -14 -49 -97 -128 -132
-142 -132 68 -10 -44 -93 -127 -132
-150 -133 69 -3 -41 -93 -127 -133
-156 -132 73 5 -39 -93 -127 -132
-152 -129 80 9 -34 -89 -125 -129
-142 -127 83 10 -29 -83 -122 -127
-136 -127 78 12 -27 -82 -121 -127
-137 -127 68 15 -29 -83 -122 -127
-139 -127 62 18 -29 -82 -124 -125
-137 -127 63 20 -24 -78 -122 -122
-135 -127 64 23 -17 -75 -115 -122
-137 -127 59 29 -10 -73 -107 -122
-139 -125 52 36 -4 -70 -101 -120
-137 -122 49 39 0 -68 -98 -117
-129 -119 55 38 1 -66 -98 -114
-122 -117 68 39 -0 -63 -98 -112
-120 -115 79 45 -0 -57 -98 -109
-122 -112 83 54 5 -54 -98 -107
-123 -110 81 60 14 -56 -97 -110
-122 -112 78 63 20 -59 -93 -117
-120 -114 77 67 20 -58 -88 -123
-117 -112 78 73 20 -54 -83 -122
-111 -106 78 79 24 -50 -80 -113
-107 -102 78 83 29 -44 -78 -102
-109 -102 78 85 31 -36 -76 -95
-117 -102 78 88 34 -29 -73 -93
-122 -98 79 92 43 -24 -69 -93
-117 -93 83 98 54 -20 -63 -93
-105 -90 88 105 60 -14 -56 -92
-93 -88 93 112 63 -10 -54 -93
-89 -85 96 118 67 -10 -55 -94
-93 -83 98 122 73 -10 -54 -93
-100 -83 102 126 79 -4 -48 -88
-102 -83 107 132 83 5 -44 -83
-96 -78 112 141 89 12 -43 -80
-88 -73 117 151 98 15 -39 -78
-83 -72 123 160 107 18 -30 -73
-83 -73 127 166 112 24 -24 -68
-85 -71 129 171 116 30 -24 -67
-83 -63 132 176 122 34 -24 -68
-77 -54 137 181 132 38 -17 -67
-68 -49 142 185 142 44 -10 -63
-61 -48 144 190 149 51 -9 -57
-59 -49 146 200 156 59 -10 -54
-58 -49 149 213 163 64 -6 -53
-54 -49 151 224 171 68 -0 -54
-49 -48 149 229 178 73 2 -54
-49 -44 146 234 185 83 0 -54
-52 -39 146 242 195 95 2 -53
-49 -34 151 254 205 102 10 -49
-37 -30 158 264 213 104 19 -42
-24 -24 161 273 220 107 24 -34
-19 -17 162 282 227 116 24 -28
-20 -15 166 293 234 127 24 -24
-18 -21 174 302 239 136 28 -23
-10 -29 181 307 244 142 34 -24
-0 -32 184 310 249 147 39 -27
10 -29 185 317 254 151 39 -29
22 -24 185 327 260 155 38 -28
34 -20 185 337 268 161 39 -24
44 -15 184 343 277 169 43 -21
49 -10 185 346 283 176 49 -20
49 -7 191 349 283 178 55 -21
44 -5 200 351 283 181 63 -20
39 -3 206 351 287 189 71 -16
39 -0 205 351 293 200 73 -10
44 3 201 355 297 207 71 -6
49 5 200 361 298 210 73 -5
53 6 202 365 300 211 81 -3
59 5 200 366 303 215 88 0
68 4 189 364 304 220 88 2
78 5 176 361 303 224 83 -0
83 8 167 358 300 225 81 -5
83 10 161 356 298 224 83 -5
82 11 155 354 296 223 84 1
83 10 151 351 293 224 83 10
85 11 151 347 289 227 84 16
88 15 151 342 288 229 88 20
93 21 150 337 289 229 91 24
98 24 151 332 288 229 93 29
101 24 154 327 284 228 95 32
102 24 151 322 278 224 98 34
99 24 139 315 271 218 99 36
93 24 127 307 264 215 98 39
87 25 124 297 255 215 97 40
88 29 127 288 249 215 98 39
100 36 126 280 246 210 99 38
117 39 117 273 244 205 98 39
128 38 107 267 238 204 97 42
127 39 102 259 229 205 98 44
119 45 101 247 219 204 102 42
112 49 98 234 210 200 107 39
110 45 88 222 203 198 109 39
107 39 78 215 200 200 107 44
100 42 73 212 198 201 103 51
93 54 73 210 195 195 102 59
90 66 73 205 187 183 103 65
88 68 68 195 176 171 102 68
84 63 60 184 166 166 99 66
78 59 54 176 161 166 98 59
71 58 53 169 157 164 99 54
63 54 54 161 151 156 98 54
52 48 53 149 142 145 91 56
39 44 49 137 132 137 83 54
29 48 45 128 124 132 78 48
24 54 44 122 117 127 78 44
23 56 48 115 111 120 77 45
24 54 54 107 107 112 73 44
23 52 58 99 103 105 67 37
20 49 59 93 93 98 59 29
14 42 57 85 73 84 48 22
5 29 54 73 49 63 34 10
-2 18 52 59 31 42 20 -11
-5 15 49 49 24 34 10 -29
-4 17 46 45 25 39 9 -30
-5 15 44 44 29 49 15 -15
-11 8 44 43 32 53 22 0
-20 0 44 39 29 49 24 0
-30 -5 42 33 17 40 16 -15
-39 -10 39 24 0 29 -0 -34
-47 -16 38 12 -14 17 -15 -47
-49 -20 39 -0 -20 10 -24 -54
-44 -20 40 -5 -19 7 -25 -56
-34 -20 39 -0 -15 5 -24 -54
-27 -24 38 7 -13 -2 -25 -50
-29 -29 39 10 -15 -10 -29 -49
-40 -30 40 6 -20 -15 -31 -53
-59 -29 39 0 -24 -15 -29 -59
-78 -31 36 -2 -24 -16 -27 -61
-88 -34 34 -0 -24 -20 -29 -59
-84 -35 36 1 -26 -25 -35 -57
-73 -34 39 0 -29 -29 -39 -59
-63 -36 40 -1 -30 -30 -39 -63
-59 -39 39 -0 -29 -29 -39 -68
-58 -40 42 1 -30 -29 -42 -74
-59 -39 49 0 -34 -34 -49 -83
-59 -39 56 -3 -38 -42 -56 -93
-59 -39 59 -5 -39 -49 -59 -98
-62 -39 55 -4 -39 -49 -59 -96
-73 -39 49 0 -39 -44 -59 -88
-85 -39 43 4 -39 -38 -59 -81
-88 -39 39 5 -39 -34 -59 -78
-79 -39 38 4 -39 -33 -58 -80
-73 -39 39 5 -39 -34 -54 -83
-77 -40 42 8 -39 -36 -50 -84
-83 -39 44 10 -39 -39 -49 -83
-82 -38 44 10 -38 -43 -53 -82
-78 -39 44 10 -39 -49 -59 -83
-80 -41 46 11 -41 -52 -62 -86
-83 -39 49 10 -44 -49 -59 -88
-77 -33 51 6 -45 -42 -53 -86
-63 -29 49 0 -44 -39 -49 -83
-52 -33 46 -4 -43 -43 -51 -84
-54 -39 44 -5 -44 -49 -59 -88
-67 -41 44 -5 -44 -50 -67 -94
-83 -39 44 -5 -44 -49 -68 -98
-93 -39 42 -5 -43 -48 -60 -100
-93 -39 39 -5 -44 -49 -54 -98
-85 -36 37 -5 -46 -49 -56 -95
-73 -29 39 -5 -49 -49 -63 -93
-63 -24 44 -5 -50 -51 -66 -93
-59 -24 49 -5 -49 -54 -63 -93
-65 -30 51 -5 -48 -54 -57 -92
-78 -39 49 -5 -49 -54 -54 -93
-90 -47 43 -5 -50 -55 -54 -96
-93 -49 39 -5 -49 -54 -54 -98
-88 -45 38 -6 -45 -51 -54 -96
-83 -39 39 -10 -44 -49 -54 -93
-83 -37 38 -18 -48 -50 -54 -92
-83 -39 34 -24 -54 -54 -54 -93
-79 -42 31 -25 -60 -58 -55 -95
-73 -44 29 -24 -68 -63 -59 -98
-69 -47 29 -25 -79 -71 -64 -103
-68 -49 29 -29 -88 -78 -68 -107
-68 -50 29 -34 -90 -80 -69 -108
-68 -49 29 -39 -88 -78 -68 -107
-68 -49 29 -44 -87 -77 -67 -106
-68 -49 29 -49 -88 -78 -68 -107
-67 -49 29 -53 -89 -79 -68 -108
-68 -49 29 -54 -88 -78 -68 -107
-69 -49 29 -53 -87 -77 -68 -106
-68 -49 29 -54 -88 -78 -68 -107
-66 -49 28 -57 -90 -78 -69 -108
-68 -49 29 -59 -93 -78 -68 -107
-77 -51 30 -59 -96 -77 -67 -105
-88 -54 29 -59 -98 -78 -68 -107
-95 -54 29 -59 -98 -80 -69 -113
-98 -49 34 -59 -98 -83 -68 -117
-99 -42 44 -58 -99 -84 -64 -113
-98 -39 49 -59 -98 -83 -63 -107
-95 -42 41 -63 -97 -82 -66 -105
-93 -49 24 -68 -102 -83 -68 -107
-93 -55 10 -71 -111 -85 -69 -110
-93 -59 5 -73 -117 -88 -73 -112
-88 -61 6 -74 -115 -90 -81 -113
-78 -59 10 -73 -112 -88 -83 -112
-69 -52 15 -68 -112 -83 -75 -107
-63 -44 20 -63 -112 -78 -63 -102
-60 -40 20 -60 -107 -75 -59 -101
-59 -39 15 -59 -102 -73 -63 -102
-57 -38 10 -57 -100 -71 -66 -103
-49 -34 10 -54 -98 -68 -63 -102
-36 -27 15 -53 -92 -65 -58 -101
-24 -20 20 -54 -88 -63 -54 -98
-17 -12 23 -53 -88 -62 -52 -93
-15 -5 29 -49 -88 -59 -49 -88
-19 1 42 -42 -81 -53 -44 -85
-29 5 59 -34 -73 -44 -39 -83
-38 6 72 -28 -68 -37 -34 -78
-39 5 78 -24 -63 -34 -29 -73
-31 7 80 -22 -55 -34 -24 -70
-24 15 78 -20 -49 -34 -20 -68
-23 25 76 -14 -48 -31 -18 -66
-20 29 78 -5 -49 -24 -15 -63
-6 27 87 6 -44 -16 -7 -59
15 29 98 15 -34 -10 5 -54
29 39 105 21 -27 -7 17 -48
29 49 107 24 -24 -5 24 -44
21 50 108 25 -23 -4 22 -45
10 44 107 24 -24 -5 10 -49
1 38 104 22 -27 -6 -4 -53
-5 34 102 20 -29 -5 -10 -54
-4 30 99 20 -28 -1 -7 -53
5 24 88 20 -24 -0 -0 -54
19 21 69 17 -22 -2 5 -55
34 24 49 10 -24 -5 10 -54
41 29 32 0 -33 -6 14 -52
34 29 15 -15 -49 -10 10 -54
20 24 -5 -35 -70 -22 -5 -62
10 15 -20 -54 -88 -39 -24 -73
9 5 -24 -67 -100 -54 -34 -80
10 -5 -20 -73 -107 -63 -34 -83
6 -14 -18 -77 -112 -66 -32 -85
0 -20 -20 -83 -117 -68 -34 -88
-6 -25 -21 -89 -121 -73 -40 -93
-15 -34 -15 -93 -127 -83 -49 -102
-31 -48 -4 -94 -134 -94 -58 -113
-49 -59 5 -93 -137 -102 -63 -122
-60 -61 8 -92 -136 -104 -65 -127
-63 -59 5 -93 -137 -102 -68 -127
-66 -63 -0 -95 -144 -102 -73 -127
-73 -73 -5 -98 -151 -107 -78 -132
-82 -83 -10 -101 -153 -113 -81 -141
-88 -88 -15 -102 -151 -117 -83 -151
-91 -89 -20 -103 -152 -119 -88 -158
-93 -88 -24 -107 -156 -122 -93 -161
-93 -87 -27 -115 -159 -127 -95 -161
-93 -88 -29 -122 -161 -132 -93 -161
-94 -92 -30 -125 -164 -134 -92 -164
-98 -98 -29 -122 -166 -132 -93 -166
-106 -101 -24 -118 -166 -129 -94 -166
-112 -102 -15 -117 -166 -127 -93 -166
-113 -101 -5 -118 -166 -126 -91 -166
-112 -102 5 -117 -166 -127 -93 -166
-115 -105 9 -116 -166 -132 -98 -166
-127 -112 5 -117 -166 -137 -102 -166
-142 -119 -4 -122 -169 -139 -103 -168
-151 -122 -10 -127 -171 -137 -102 -171
-144 -119 -10 -129 -172 -134 -102 -172
-122 -112 -10 -127 -171 -132 -102 -171
-98 -105 -15 -125 -172 -132 -102 -170
-88 -102 -20 -122 -171 -132 -102 -171
-97 -102 -21 -122 -169 -133 -103 -173
-117 -102 -20 -127 -166 -132 -102 -171
-137 -104 -21 -136 -167 -132 -101 -169
-146 -107 -20 -137 -166 -132 -102 -171
-141 -112 -16 -129 -164 -131 -107 -179
-122 -112 -10 -117 -156 -122 -107 -181
-115 -121 10 -102 -149 -118 -115 -187
-142 -151 63 -73 -142 -132 -142 -215
-203 -207 144 -27 -138 -167 -195 -274
-264 -264 220 24 -127 -195 -249 -337
-302 -298 283 83 -98 -202 -288 -383
-322 -303 356 166 -39 -190 -307 -410
-341 -286 454 280 47 -170 -315 -428
-346 -244 532 386 137 -132 -303 -425
-308 -175 542 450 212 -63 -253 -382
-215 -83 483 473 268 34 -161 -298
-96 24 416 502 334 149 -42 -194
24 137 381 566 434 278 88 -83
162 246 372 673 573 431 229 41
356 342 351 800 727 610 395 195
605 447 305 926 887 821 605 391
854 600 239 1021 1060 1075 869 634
1054 821 153 1073 1256 1385 1190 924
1201 1079 34 1075 1450 1729 1548 1245
1307 1331 -100 1017 1586 2041 1900 1562
1363 1543 -210 883 1607 2231 2173 1816
1353 1665 -293 673 1484 2234 2290 1949
1294 1641 -400 390 1216 2036 2212 1933
1220 1468 -573 30 822 1677 1976 1796
1138 1226 -776 -405 346 1221 1660 1592
1018 1009 -930 -851 -140 743 1328 1362
844 849 -992 -1197 -551 317 1006 1123
648 724 -979 -1376 -833 -1 721 896
483 605 -932 -1431 -992 -205 503 703
370 480 -891 -1451 -1083 -346 340 542
278 332 -878 -1485 -1167 -493 171 376
178 164 -894 -1524 -1264 -670 -28 192
73 5 -908 -1548 -1358 -830 -210 20
-10 -112 -899 -1545 -1408 -919 -320 -102
-63 -185 -874 -1509 -1397 -932 -371 -181
-97 -234 -856 -1449 -1346 -917 -411 -245
-122 -268 -844 -1387 -1294 -908 -449 -298
-140 -283 -820 -1328 -1246 -899 -464 -325
-151 -278 -766 -1241 -1172 -854 -449 -327
-163 -268 -685 -1108 -1056 -770 -427 -325
-176 -259 -590 -952 -922 -673 -405 -327
-187 -257 -493 -815 -807 -595 -382 -331
-185 -254 -400 -698 -703 -527 -351 -327
-175 -250 -313 -583 -593 -458 -319 -319
-161 -239 -234 -464 -478 -381 -283 -303
-153 -224 -168 -362 -386 -315 -249 -286
-151 -205 -117 -293 -327 -268 -220 -273
-152 -188 -80 -246 -285 -233 -202 -270
-151 -171 -54 -205 -244 -200 -181 -264
-146 -156 -33 -162 -205 -171 -154 -252
-137 -146 -15 -132 -181 -156 -132 -239
-132 -144 -0 -117 -170 -153 -128 -236
-137 -146 10 -112 -161 -151 -137 -239
-149 -148 18 -101 -146 -143 -145 -240
-156 -146 24 -88 -137 -137 -142 -239
-153 -141 28 -77 -137 -134 -133 -239
-146 -137 24 -73 -137 -132 -127 -239
-143 -136 16 -68 -126 -122 -126 -236
-146 -137 10 -59 -112 -112 -127 -234
-148 -137 16 -47 -104 -107 -127 -235
-146 -137 29 -39 -102 -107 -127 -239
-144 -137 43 -33 -96 -105 -127 -240
-146 -137 49 -29 -88 -102 -127 -239
-145 -133 51 -25 -84 -99 -124 -238
-137 -127 54 -24 -83 -93 -117 -239
-125 -123 58 -23 -79 -82 -110 -239
-122 -122 59 -20 -73 -73 -107 -239
-130 -123 57 -13 -70 -72 -107 -240
-137 -122 54 -5 -68 -73 -107 -239
-133 -119 54 -1 -64 -69 -105 -236
-122 -117 54 0 -59 -63 -102 -234
-117 -116 54 2 -57 -61 -102 -234
-122 -117 54 5 -59 -63 -107 -234
-127 -117 57 8 -59 -62 -112 -231
-127 -117 63 10 -54 -59 -112 -229
-125 -117 67 14 -46 -56 -106 -229
-127 -117 68 20 -39 -54 -98 -229
-130 -115 68 27 -33 -51 -91 -227
-127 -112 68 29 -29 -49 -88 -224
-119 -109 67 28 -28 -47 -86 -222
-112 -107 63 29 -29 -44 -83 -220
-111 -105 58 35 -30 -38 -80 -217
-112 -102 54 44 -24 -34 -78 -215
-111 -96 55 50 -13 -32 -76 -214
-107 -88 59 54 -5 -29 -73 -215
-103 -79 64 58 -2 -22 -67 -214
-98 -73 68 63 0 -15 -63 -210
-92 -73 72 69 5 -14 -62 -204
-88 -83 78 73 10 -15 -63 -200
-90 -97 84 75 12 -14 -64 -199
-98 -102 88 78 15 -10 -63 -200
-103 -94 90 82 23 -5 -60 -201
-98 -78 93 88 34 0 -54 -200
-85 -65 98 95 41 6 -47 -199
-73 -59 102 102 44 10 -44 -200
-72 -60 102 106 48 10 -45 -201
-83 -68 102 107 54 10 -44 -200
-97 -79 103 108 59 15 -39 -195
-102 -83 107 112 63 24 -34 -190
-93 -76 111 121 69 30 -33 -187
-78 -63 117 132 78 34 -29 -185
-67 -55 123 140 87 38 -21 -180
-63 -54 127 146 93 44 -15 -176
-63 -53 126 152 96 50 -15 -178
-59 -49 122 161 102 54 -15 -185
-50 -43 120 170 111 58 -8 -191
-39 -39 122 176 122 63 -0 -190
-32 -38 124 181 130 70 1 -181
-29 -39 127 190 137 78 0 -171
-27 -39 130 204 144 84 4 -164
-24 -39 132 215 151 88 10 -161
-21 -38 134 220 158 93 12 -161
-24 -34 137 224 166 102 10 -161
-29 -28 143 233 176 114 12 -160
-29 -24 151 244 185 122 20 -156
-20 -23 158 251 191 124 29 -150
-10 -24 161 254 195 127 34 -146
-8 -24 162 257 199 135 34 -144
-10 -24 166 264 205 146 34 -142
-8 -25 172 272 212 155 38 -139
-0 -24 176 278 220 161 44 -137
11 -17 177 282 228 167 49 -136
20 -10 176 288 234 171 49 -137
27 -8 176 298 240 173 48 -136
29 -10 176 307 249 176 49 -132
28 -12 175 313 258 181 53 -128
29 -10 176 317 264 185 59 -127
35 -7 183 322 265 187 65 -128
44 -5 195 327 268 190 73 -127
53 -3 205 330 275 199 80 -122
59 -0 205 332 283 210 83 -117
62 3 197 334 285 216 81 -115
63 5 190 337 283 215 83 -117
63 6 186 338 281 213 91 -119
68 5 181 337 283 215 98 -117
78 4 171 336 286 220 99 -112
88 5 161 337 288 224 98 -107
93 8 155 337 288 225 99 -104
93 10 151 337 288 224 102 -102
92 11 149 335 286 223 103 -99
93 10 151 332 283 224 102 -98
95 11 158 327 280 227 104 -98
98 15 161 322 278 229 107 -98
100 19 157 317 277 229 108 -98
102 20 151 312 273 229 107 -102
102 17 148 308 266 228 106 -108
102 15 142 303 259 224 107 -112
102 15 128 297 252 218 108 -108
102 15 112 288 244 215 107 -98
103 16 105 278 235 215 106 -90
107 20 107 268 229 215 107 -88
111 26 106 260 228 210 108 -89
112 29 98 254 229 205 107 -88
106 27 87 247 227 204 105 -85
98 29 83 239 220 205 107 -83
94 38 85 228 210 204 115 -82
98 49 88 215 200 200 127 -78
105 52 85 203 193 198 136 -70
107 49 78 195 190 200 137 -63
101 47 73 189 187 201 130 -60
93 49 73 181 181 195 122 -63
89 51 73 169 169 183 116 -66
88 49 68 156 156 171 112 -68
86 48 56 146 147 166 108 -70
83 54 44 142 142 166 107 -73
79 62 36 139 138 164 108 -75
73 63 34 132 132 156 107 -73
65 54 32 120 124 145 101 -70
59 44 29 107 117 137 93 -73
56 41 25 98 112 131 88 -80
54 44 24 93 107 127 88 -83
49 46 28 86 102 122 87 -78
39 44 34 78 98 117 83 -73
29 42 38 70 93 112 76 -74
20 39 39 63 83 107 68 -78
13 33 37 55 68 97 61 -80
5 24 34 44 54 83 54 -83
-1 16 32 31 47 70 47 -93
-5 15 29 20 44 63 39 -107
-8 17 26 12 38 60 31 -114
-15 15 24 5 29 54 24 -112
-27 8 24 -4 19 41 19 -111
-39 0 24 -10 10 29 15 -117
-45 -3 22 -11 2 24 10 -127
-44 -5 20 -10 -5 24 5 -132
-41 -8 19 -13 -9 23 -0 -132
-39 -10 20 -20 -10 20 -5 -132
-43 -9 21 -27 -12 18 -9 -136
-54 -10 20 -29 -15 15 -15 -142
-69 -15 19 -28 -19 8 -22 -145
-78 -20 20 -29 -24 0 -29 -146
-74 -21 21 -34 -27 -3 -31 -150
-59 -20 20 -39 -24 -0 -29 -156
-44 -21 17 -41 -18 2 -26 -158
-39 -24 15 -39 -15 0 -29 -156
-46 -28 17 -38 -20 -5 -38 -154
-63 -34 20 -39 -29 -10 -49 -156
-80 -42 21 -40 -36 -12 -56 -162
-88 -49 20 -39 -39 -10 -59 -166
-85 -51 21 -38 -39 -5 -61 -165
-78 -49 24 -39 -39 -0 -63 -161
-72 -48 28 -42 -39 2 -66 -156
-68 -49 29 -44 -39 0 -68 -156
-66 -49 29 -43 -37 -3 -70 -160
-68 -49 29 -39 -34 -5 -73 -166
-70 -49 29 -35 -31 -6 -75 -172
-68 -49 29 -34 -29 -5 -78 -176
-64 -49 28 -35 -28 -4 -81 -180
-68 -49 29 -34 -29 -5 -83 -185
-82 -49 32 -31 -30 -7 -85 -189
-93 -49 34 -29 -29 -10 -88 -190
-88 -48 29 -29 -28 -14 -93 -191
-73 -49 20 -29 -29 -20 -98 -195
-64 -50 12 -29 -32 -23 -101 -202
-63 -49 10 -29 -34 -20 -98 -205
-64 -46 11 -31 -34 -13 -92 -201
-63 -49 10 -34 -34 -10 -88 -195
-65 -59 6 -35 -34 -14 -90 -192
-73 -68 5 -34 -34 -20 -98 -195
-81 -65 12 -34 -32 -20 -105 -197
-83 -54 24 -34 -29 -15 -107 -195
-78 -43 35 -34 -28 -10 -103 -189
-73 -39 39 -34 -29 -10 -98 -185
-73 -40 38 -35 -31 -15 -99 -187
-78 -44 34 -39 -34 -24 -107 -195
-82 -50 31 -43 -37 -33 -117 -202
-83 -54 29 -44 -39 -39 -122 -205
-81 -54 26 -42 -41 -39 -117 -202
-78 -54 20 -39 -44 -34 -107 -195
-77 -56 13 -38 -47 -29 -99 -189
-78 -59 10 -39 -49 -29 -98 -185
-82 -60 13 -43 -49 -33 -102 -184
-88 -59 20 -49 -49 -39 -107 -185
-95 -58 27 -55 -49 -44 -112 -186
-98 -59 29 -59 -49 -49 -117 -185
-97 -59 26 -61 -49 -52 -120 -184
-93 -59 20 -63 -49 -54 -122 -185
-90 -59 14 -65 -50 -54 -122 -186
-88 -59 10 -68 -54 -54 -122 -185
-86 -60 7 -70 -59 -56 -124 -183
-83 -63 -0 -73 -63 -59 -127 -185
-79 -66 -11 -76 -65 -62 -129 -190
-78 -68 -20 -78 -68 -63 -127 -195
-79 -68 -22 -78 -71 -63 -125 -197
-78 -68 -20 -78 -73 -63 -127 -200
-75 -69 -21 -81 -74 -63 -131 -208
-73 -68 -24 -83 -78 -63 -132 -215
-75 -65 -24 -83 -85 -65 -130 -215
-78 -63 -20 -83 -88 -68 -132 -210
-78 -62 -15 -83 -83 -69 -139 -205
-73 -59 -10 -83 -78 -68 -142 -200
-67 -52 -5 -81 -79 -65 -134 -194
-63 -44 -0 -78 -83 -63 -122 -190
-62 -40 3 -78 -84 -63 -118 -189
-63 -39 5 -78 -83 -63 -122 -190
-64 -38 7 -76 -81 -62 -125 -188
-59 -34 10 -73 -78 -59 -122 -181
-47 -27 12 -70 -72 -56 -115 -172
-34 -20 10 -68 -68 -54 -112 -166
-27 -14 7 -66 -69 -54 -113 -165
-24 -10 10 -63 -68 -54 -117 -171
-23 -7 22 -59 -62 -51 -119 -178
-24 -5 34 -54 -54 -44 -117 -181
-24 -4 38 -48 -49 -37 -113 -177
-20 -5 34 -44 -44 -34 -107 -171
-12 -3 26 -42 -36 -34 -102 -167
-5 5 20 -39 -29 -34 -98 -166
-3 15 17 -33 -28 -31 -96 -164
0 20 20 -24 -29 -24 -93 -161
9 19 27 -15 -24 -16 -89 -156
20 20 34 -10 -15 -10 -83 -151
27 29 38 -7 -8 -7 -77 -147
29 39 39 -5 -5 -5 -73 -146
32 42 40 -4 -4 -4 -71 -148
34 39 39 -5 -5 -5 -73 -151
31 36 38 -8 -7 -6 -75 -152
20 34 39 -10 -10 -5 -73 -151
9 29 40 -12 -10 -3 -69 -150
5 24 34 -15 -10 -5 -68 -151
12 25 18 -21 -11 -13 -69 -150
24 34 0 -29 -15 -20 -68 -146
31 44 -13 -39 -23 -24 -64 -141
24 44 -24 -54 -39 -29 -68 -142
10 35 -37 -74 -60 -42 -83 -150
0 24 -49 -93 -78 -59 -102 -161
-1 15 -52 -102 -88 -72 -112 -166
-0 5 -49 -102 -93 -78 -112 -166
-4 -7 -47 -102 -97 -80 -110 -164
-10 -20 -49 -107 -102 -83 -112 -166
-15 -31 -51 -116 -107 -89 -118 -172
-24 -44 -49 -122 -112 -98 -127 -181
-41 -58 -45 -123 -116 -107 -136 -192
-59 -68 -44 -122 -117 -112 -142 -200
-69 -69 -48 -121 -115 -112 -144 -204
-73 -68 -54 -122 -117 -112 -146 -205
-79 -74 -60 -124 -125 -116 -151 -208
-93 -88 -63 -127 -132 -127 -156 -215
-109 -101 -64 -130 -134 -139 -159 -225
-117 -107 -63 -132 -132 -146 -161 -234
-111 -108 -61 -133 -133 -149 -166 -239
-93 -107 -59 -137 -137 -151 -171 -239
-73 -106 -58 -144 -140 -156 -173 -238
-63 -107 -59 -151 -142 -161 -171 -239
-71 -111 -59 -154 -144 -163 -170 -242
-93 -117 -59 -151 -146 -161 -171 -244
-117 -121 -59 -147 -146 -158 -172 -244
-132 -122 -59 -146 -146 -156 -171 -244
-136 -120 -58 -147 -146 -155 -169 -244
-132 -117 -54 -146 -146 -156 -171 -244
-126 -114 -51 -145 -145 -160 -176 -243
-122 -112 -54 -146 -146 -166 -181 -244
-119 -112 -63 -152 -149 -170 -183 -248
-117 -112 -68 -156 -151 -171 -185 -254
-117 -112 -65 -157 -151 -171 -188 -259
-117 -112 -59 -156 -151 -171 -190 -259
-116 -112 -58 -156 -152 -171 -190 -258
-117 -112 -59 -151 -151 -171 -190 -259
-122 -112 -58 -146 -149 -172 -191 -261
-127 -112 -59 -146 -146 -171 -190 -259
-132 -114 -64 -154 -147 -171 -187 -253
-132 -117 -68 -156 -146 -171 -181 -249
-130 -125 -64 -149 -143 -174 -182 -254
-127 -137 -54 -137 -137 -176 -190 -264
-138 -160 -31 -124 -134 -187 -213 -285
-171 -195 15 -98 -127 -210 -249 -322
-221 -242 86 -51 -112 -241 -299 -378
-264 -283 166 15 -83 -259 -346 -434
-295 -311 253 99 -35 -255 -384 -479
-322 -322 356 205 34 -234 -405 -508
-350 -311 469 328 124 -198 -406 -521
-351 -264 542 429 215 -142 -376 -503
-301 -180 536 477 287 -62 -311 -446
-205 -73 464 478 337 34 -215 -356
-93 43 390 494 405 152 -91 -246
24 161 356 571 527 303 59 -117
176 267 350 712 698 488 228 28
390 346 327 864 864 678 405 185
643 433 270 979 1006 881 609 368
874 595 190 1036 1158 1143 883 615
1048 855 100 1055 1363 1504 1254 948
1172 1148 -10 1045 1582 1909 1670 1323
1258 1387 -139 973 1710 2226 2029 1654
1289 1538 -264 795 1665 2343 2241 1865
1253 1599 -373 523 1455 2247 2281 1936
1177 1558 -493 205 1138 1992 2168 1890
1097 1412 -650 -138 751 1633 1946 1761
1011 1206 -820 -532 298 1192 1650 1572
884 1008 -945 -957 -187 702 1308 1339
708 849 -992 -1309 -615 244 952 1084
527 716 -975 -1494 -902 -98 639 845
386 581 -932 -1538 -1050 -312 405 644
292 432 -901 -1537 -1132 -461 229 470
210 268 -893 -1553 -1216 -615 49 288
116 106 -901 -1578 -1310 -784 -151 100
20 -29 -898 -1587 -1387 -922 -322 -59
-53 -127 -881 -1572 -1420 -992 -420 -163
-98 -200 -864 -1533 -1406 -1006 -468 -234
-126 -259 -864 -1478 -1365 -1001 -512 -300
-146 -298 -864 -1421 -1319 -997 -551 -356
-161 -309 -844 -1362 -1265 -981 -564 -386
-176 -298 -795 -1280 -1182 -932 -551 -395
-200 -286 -726 -1159 -1064 -857 -537 -405
-224 -278 -639 -1011 -932 -771 -522 -415
-235 -276 -538 -865 -814 -691 -498 -417
-224 -273 -434 -732 -703 -610 -459 -405
-202 -270 -341 -609 -593 -529 -421 -390
-181 -259 -264 -493 -483 -449 -381 -371
-169 -243 -201 -395 -392 -385 -341 -352
-161 -224 -151 -322 -327 -337 -307 -337
-156 -209 -115 -268 -278 -299 -289 -334
-151 -195 -93 -224 -234 -264 -278 -332
-145 -181 -77 -184 -196 -235 -264 -326
-137 -166 -63 -156 -171 -220 -249 -317
-133 -157 -49 -140 -156 -215 -242 -315
-137 -156 -39 -132 -142 -210 -244 -317
-145 -158 -31 -120 -125 -199 -244 -318
-146 -156 -24 -107 -117 -190 -239 -317
-137 -151 -14 -97 -117 -185 -231 -317
-127 -146 -5 -93 -117 -181 -224 -317
-127 -145 3 -85 -104 -169 -218 -311
-137 -146 10 -73 -88 -156 -210 -303
-145 -146 18 -58 -77 -148 -201 -296
-146 -146 24 -49 -73 -146 -195 -293
-144 -143 25 -43 -66 -144 -194 -290
-146 -137 20 -39 -59 -142 -195 -288
-147 -126 16 -35 -55 -141 -193 -287
-142 -117 15 -34 -54 -137 -190 -288
-133 -117 15 -33 -49 -128 -188 -288
-132 -127 10 -29 -44 -122 -190 -288
-140 -138 4 -22 -41 -121 -193 -288
-146 -142 5 -15 -39 -122 -195 -288
-137 -136 14 -13 -34 -118 -193 -285
-117 -127 24 -15 -29 -112 -190 -283
-101 -120 27 -16 -27 -111 -188 -282
-98 -117 24 -15 -29 -112 -190 -283
-102 -117 22 -12 -29 -111 -195 -284
-107 -117 24 -10 -24 -107 -200 -288
-112 -117 28 -6 -17 -104 -201 -294
-117 -117 29 0 -10 -102 -195 -298
-120 -115 28 7 -2 -98 -185 -293
-117 -112 29 10 5 -93 -176 -283
-109 -109 31 9 10 -88 -170 -273
-102 -107 34 10 10 -83 -166 -268
-100 -105 35 16 10 -77 -162 -265
-102 -102 34 24 15 -73 -156 -264
-103 -101 35 30 25 -71 -149 -264
-102 -102 39 34 34 -68 -142 -264
-101 -104 45 38 37 -61 -136 -263
-98 -102 49 44 39 -54 -132 -259
-92 -97 50 50 44 -53 -131 -253
-88 -93 49 54 49 -54 -132 -249
-90 -93 49 56 51 -53 -133 -248
-98 -93 49 59 54 -49 -132 -249
-103 -89 50 63 62 -44 -129 -250
-98 -83 54 68 73 -39 -122 -249
-85 -80 59 75 80 -33 -115 -248
-73 -78 63 83 83 -29 -112 -249
-68 -75 63 89 87 -29 -113 -250
-73 -73 63 93 93 -29 -112 -249
-81 -73 64 96 100 -24 -106 -244
-83 -73 68 102 107 -15 -102 -239
-77 -68 73 111 116 -9 -101 -236
-68 -63 78 122 127 -5 -98 -234
-63 -63 84 131 136 -1 -89 -229
-63 -68 88 137 142 5 -83 -224
-65 -71 90 143 146 11 -83 -222
-63 -68 93 151 151 15 -83 -224
-57 -62 98 159 159 18 -76 -224
-49 -59 102 166 166 20 -68 -220
-43 -59 104 172 171 24 -66 -214
-39 -59 107 181 176 29 -68 -210
-34 -59 113 194 183 34 -66 -211
-24 -59 122 205 190 39 -63 -215
-13 -58 129 211 197 44 -64 -218
-10 -54 132 215 205 54 -68 -220
-16 -46 130 222 216 66 -67 -219
-20 -39 127 234 229 73 -59 -215
-16 -35 124 245 240 75 -49 -208
-10 -34 122 254 249 78 -44 -200
-8 -33 122 263 258 87 -42 -194
-10 -34 127 273 268 98 -39 -190
-7 -36 135 282 278 106 -32 -187
-0 -34 142 288 288 112 -24 -185
7 -27 145 292 296 117 -20 -184
10 -20 146 298 303 122 -20 -185
11 -18 146 308 309 126 -21 -185
10 -20 146 317 317 132 -20 -181
9 -22 145 323 326 142 -16 -170
10 -20 146 327 332 151 -10 -156
15 -17 150 332 334 156 -3 -144
24 -15 156 337 337 161 5 -137
35 -15 159 340 343 170 13 -135
44 -15 156 342 351 181 15 -137
49 -15 151 346 355 186 13 -140
49 -15 151 351 356 185 15 -142
47 -14 156 355 357 185 26 -141
49 -15 161 356 361 190 39 -137
58 -16 162 356 364 199 47 -131
68 -15 161 356 366 205 49 -127
73 -11 158 354 366 207 47 -125
73 -5 151 351 366 205 44 -122
72 -1 140 347 364 204 40 -119
73 -0 132 342 361 205 39 -117
75 1 131 337 357 208 43 -117
78 5 132 332 356 210 49 -117
84 11 128 327 357 212 53 -113
88 15 122 322 356 215 54 -107
86 16 115 315 351 215 56 -103
78 15 102 307 342 210 59 -102
68 15 83 298 332 201 60 -101
63 15 68 288 322 195 59 -98
67 17 68 278 313 195 58 -93
78 24 78 268 307 195 59 -88
91 34 83 260 305 191 60 -83
98 39 78 254 303 185 59 -78
96 38 70 247 297 183 58 -74
88 39 68 239 288 185 59 -73
84 48 70 228 277 185 63 -72
88 59 68 215 268 181 68 -68
