-107 -117 -293 -615 -527 -429 -381 -390
-114 -122 -291 -616 -528 -444 -398 -414
-88 -88 -185 -400 -342 -317 -293 -317
-69 -61 -100 -228 -192 -220 -214 -247
-68 -59 -78 -185 -156 -205 -205 -244
-68 -62 -67 -164 -144 -199 -199 -239
-59 -59 -34 -98 -98 -161 -161 -200
-51 -56 -2 -34 -53 -125 -125 -164
-49 -59 10 -10 -39 -117 -117 -156
-48 -64 15 1 -37 -118 -119 -157
-44 -68 24 24 -29 -112 -117 -151
-40 -73 33 47 -22 -107 -116 -146
-39 -78 39 59 -20 -107 -117 -146
-39 -81 43 67 -17 -108 -116 -145
-39 -83 49 78 -10 -107 -112 -142
-39 -86 54 89 -5 -108 -109 -139
-39 -88 59 98 0 -107 -107 -137
-37 -89 65 105 7 -102 -102 -133
-34 -88 73 112 15 -93 -93 -127
-31 -88 82 119 23 -84 -84 -122
-29 -88 88 127 29 -78 -78 -117
-28 -88 90 131 33 -76 -75 -114
-29 -88 88 132 34 -78 -73 -112
-29 -88 87 134 36 -79 -70 -110
-29 -88 88 137 39 -78 -68 -107
-29 -88 88 141 42 -75 -67 -104
-29 -88 88 146 44 -73 -68 -102
-30 -88 88 151 46 -71 -69 -100
-29 -88 88 156 49 -68 -68 -98
-27 -86 88 159 53 -64 -64 -94
-24 -83 88 161 59 -59 -59 -88
-22 -80 88 164 64 -53 -53 -82
-20 -78 88 166 68 -49 -49 -78
-20 -78 88 167 69 -46 -46 -75
-20 -78 88 166 68 -44 -44 -73
-21 -78 88 165 67 -42 -42 -71
-20 -78 88 166 68 -39 -39 -68
-16 -76 88 167 72 -36 -36 -65
-10 -73 88 166 78 -34 -34 -63
-4 -70 88 165 84 -32 -32 -61
0 -68 88 166 88 -29 -29 -59
1 -68 88 172 91 -26 -26 -57
-0 -68 88 181 93 -24 -24 -54
-0 -68 88 189 95 -22 -22 -51
0 -68 88 195 98 -20 -20 -49
0 -68 86 196 100 -16 -16 -46
-0 -68 83 195 102 -10 -10 -44
-1 -69 80 193 103 -4 -4 -42
-0 -68 78 195 107 0 0 -39
2 -66 78 201 113 3 1 -36
5 -63 78 210 122 5 -0 -34
8 -61 78 218 130 7 -2 -32
10 -59 78 224 137 10 0 -29
12 -55 80 227 142 16 6 -25
15 -49 83 229 146 24 15 -20
18 -43 86 230 151 32 23 -15
20 -39 88 234 156 39 29 -10
21 -38 88 240 161 43 32 -7
20 -39 88 249 166 44 34 -5
19 -39 88 257 170 45 36 -4
20 -39 88 264 176 49 39 0
22 -39 88 271 184 55 44 7
24 -39 88 278 195 63 49 15
26 -40 88 285 206 71 54 23
29 -39 88 293 215 78 59 29
34 -37 88 299 222 83 65 34
39 -34 88 303 229 88 73 39
44 -32 88 306 237 92 81 43
49 -29 88 312 244 98 88 49
54 -25 88 323 250 105 95 56
59 -20 88 337 254 112 102 63
63 -15 88 350 258 119 109 70
68 -10 88 361 264 127 117 78
74 -3 86 371 271 138 127 87
83 5 83 381 278 151 137 98
92 14 80 391 285 165 147 108
98 20 78 400 293 176 156 117
100 22 77 409 300 184 164 125
98 20 78 420 307 190 171 132
96 18 79 431 314 197 177 138
98 20 78 439 322 205 185 146
105 28 74 444 331 216 196 157
117 39 68 449 342 229 210 171
129 50 62 454 353 243 223 184
137 59 59 459 361 254 234 195
141 66 58 462 364 261 244 203
142 73 59 464 366 264 254 210
143 80 60 466 368 267 264 217
146 88 59 468 371 273 273 224
152 97 55 468 373 282 282 233
161 107 49 468 376 293 293 244
170 118 44 469 379 304 304 256
176 127 39 468 381 312 312 264
179 133 34 466 381 315 315 269
181 137 29 464 381 317 317 273
184 142 24 463 382 320 319 279
185 146 20 459 381 322 322 283
185 147 16 450 377 322 326 284
185 146 10 439 371 322 332 283
186 146 4 430 366 323 339 283
185 146 0 420 361 322 342 283
178 145 -1 403 354 319 338 282
166 142 -0 381 346 317 332 283
154 139 0 359 340 316 328 285
146 137 0 342 332 312 322 283
143 136 -0 330 321 302 312 275
142 137 -0 322 307 288 298 264
141 139 -0 314 295 276 285 254
137 137 0 303 283 264 273 244
128 129 2 287 270 250 259 231
117 117 5 268 254 234 244 215
107 107 7 249 238 219 230 200
98 98 10 234 224 205 215 185
90 88 14 221 210 187 197 169
83 78 20 210 195 166 176 151
76 68 26 198 180 145 155 133
68 59 29 185 166 127 137 117
58 48 30 169 152 112 122 102
44 34 29 151 137 98 107 88
30 20 28 132 121 82 92 73
20 10 29 117 107 68 78 59
17 4 33 110 97 56 64 46
20 -0 39 107 88 44 49 34
22 -4 45 103 78 32 33 22
20 -10 49 98 68 20 20 10
14 -16 50 92 58 10 11 -0
5 -20 49 88 49 -0 5 -10
-3 -24 49 84 38 -10 -2 -20
-10 -29 49 78 29 -20 -10 -29
-15 -37 49 68 22 -29 -19 -39
-20 -49 49 54 15 -39 -29 -49
-25 -61 49 39 7 -50 -40 -60
-29 -68 49 29 0 -59 -49 -68
-30 -70 49 27 -4 -63 -53 -72
-29 -68 49 29 -5 -63 -54 -73
-28 -67 49 30 -7 -64 -56 -75
-29 -68 49 29 -10 -68 -59 -78
-31 -72 49 26 -13 -73 -63 -83
-34 -78 49 24 -15 -78 -68 -88
-37 -84 49 22 -18 -84 -74 -94
-39 -88 49 20 -20 -88 -78 -98
-41 -89 49 19 -21 -89 -79 -99
-44 -88 49 20 -20 -88 -78 -98
-47 -88 49 20 -19 -87 -78 -97
-49 -88 49 20 -20 -88 -78 -98
-49 -88 49 18 -23 -90 -78 -100
-49 -88 49 15 -29 -93 -78 -102
-49 -88 49 12 -35 -96 -78 -105
-49 -88 49 10 -39 -98 -78 -107
-49 -86 49 10 -40 -98 -78 -107
-49 -83 49 10 -39 -98 -78 -107
-49 -80 49 10 -39 -98 -78 -107
-49 -78 49 10 -39 -98 -78 -107
-49 -78 49 10 -39 -98 -78 -107
-49 -78 49 10 -39 -98 -78 -107
-49 -77 49 10 -39 -98 -77 -107
-49 -78 49 10 -39 -98 -78 -107
-52 -83 49 10 -39 -98 -81 -107
-59 -93 49 10 -39 -98 -88 -107
-66 -103 49 10 -39 -98 -95 -107
-68 -107 49 10 -39 -98 -98 -107
-60 -99 51 12 -39 -98 -95 -105
-44 -83 54 15 -39 -98 -88 -102
-28 -67 57 18 -39 -98 -81 -99
-20 -59 59 20 -39 -98 -78 -98
-22 -61 59 20 -39 -96 -77 -98
-29 -68 59 20 -39 -93 -78 -98
-35 -75 59 20 -39 -90 -78 -98
-39 -78 59 20 -39 -88 -78 -98
-41 -78 59 21 -41 -88 -78 -98
-44 -78 59 24 -44 -88 -78 -98
-47 -78 59 27 -47 -88 -78 -98
-49 -78 59 29 -49 -88 -78 -98
-49 -78 59 30 -49 -88 -78 -98
-49 -78 59 29 -49 -88 -78 -98
-49 -78 59 29 -49 -88 -78 -98
-49 -78 59 29 -49 -88 -78 -98
-47 -78 57 31 -49 -88 -78 -98
-44 -78 54 34 -49 -88 -78 -98
-41 -78 51 37 -49 -88 -78 -98
-39 -78 49 39 -49 -88 -78 -98
-39 -78 49 39 -49 -88 -78 -98
-39 -78 49 39 -49 -88 -78 -98
-39 -78 49 39 -49 -88 -78 -98
-39 -78 49 39 -49 -88 -78 -98
-42 -78 49 37 -49 -88 -78 -98
-49 -78 49 34 -49 -88 -78 -98
-56 -78 49 31 -49 -88 -78 -98
-59 -78 49 29 -49 -88 -78 -98
-56 -76 51 29 -49 -88 -78 -98
-49 -73 54 29 -49 -88 -78 -98
-42 -70 57 29 -49 -88 -78 -98
-39 -68 59 29 -49 -88 -78 -98
-38 -67 59 29 -49 -88 -78 -98
-39 -68 59 29 -49 -88 -78 -98
-39 -68 59 29 -49 -88 -78 -98
-39 -68 59 29 -49 -88 -78 -98
-37 -66 59 29 -49 -88 -76 -96
-34 -63 59 29 -49 -88 -73 -93
-31 -60 59 29 -49 -88 -70 -90
-29 -59 59 29 -49 -88 -68 -88
-29 -59 59 29 -49 -88 -68 -88
-29 -59 59 29 -49 -88 -68 -88
-29 -59 59 29 -49 -88 -67 -88
-29 -59 59 29 -49 -88 -68 -88
-29 -59 59 27 -51 -88 -72 -88
-29 -59 59 24 -54 -88 -78 -88
-29 -58 59 22 -57 -88 -84 -88
-29 -59 59 20 -59 -88 -88 -88
-31 -62 59 18 -61 -88 -89 -88
-34 -68 59 15 -63 -88 -88 -88
-37 -74 59 12 -66 -88 -88 -88
-39 -78 59 10 -68 -88 -88 -88
-39 -79 59 10 -68 -90 -88 -90
-39 -78 59 10 -68 -93 -88 -93
-39 -78 59 10 -68 -96 -88 -96
-39 -78 59 10 -68 -98 -88 -98
-39 -78 57 10 -68 -98 -88 -98
-39 -78 54 10 -68 -98 -88 -98
-39 -78 51 10 -68 -98 -88 -98
-39 -78 49 10 -68 -98 -88 -98
-39 -78 49 8 -70 -98 -90 -98
-39 -78 49 5 -73 -98 -93 -98
-39 -77 49 2 -76 -97 -96 -98
-39 -78 49 0 -78 -98 -98 -98
-41 -82 47 -0 -78 -101 -98 -99
-44 -88 44 -0 -78 -107 -98 -102
-47 -94 41 0 -78 -113 -98 -105
-49 -98 39 0 -78 -117 -98 -107
-49 -98 39 -0 -78 -118 -99 -107
-49 -98 39 -0 -78 -117 -102 -107
-49 -98 39 0 -78 -117 -105 -107
-49 -98 39 0 -78 -117 -107 -107
-49 -96 41 -0 -80 -117 -107 -107
-49 -93 44 -0 -83 -117 -107 -107
-49 -90 47 0 -86 -117 -107 -107
-49 -88 49 -0 -88 -117 -107 -107
-49 -88 49 -0 -88 -117 -107 -107
-49 -88 49 0 -88 -117 -107 -107
-49 -88 49 0 -88 -117 -107 -107
-49 -88 49 -0 -88 -117 -107 -107
-49 -88 49 -0 -88 -117 -107 -107
-49 -88 49 0 -88 -117 -107 -107
-49 -88 49 0 -88 -117 -107 -107
-49 -88 49 -0 -88 -117 -107 -107
-49 -88 49 -2 -90 -117 -107 -107
-49 -88 49 -5 -93 -117 -107 -107
-49 -88 49 -8 -96 -117 -107 -107
-49 -88 49 -10 -98 -117 -107 -107
-49 -86 49 -10 -98 -117 -107 -107
-49 -83 49 -10 -98 -117 -107 -107
-49 -79 49 -10 -99 -117 -107 -107
-49 -78 49 -10 -98 -117 -107 -107
-50 -78 49 -10 -94 -117 -107 -107
-49 -78 49 -10 -88 -117 -107 -107
-46 -75 49 -10 -84 -117 -107 -108
-44 -73 49 -10 -83 -117 -107 -112
-44 -73 49 -11 -81 -117 -107 -117
-44 -73 49 -10 -78 -117 -107 -117
-44 -73 51 -7 -75 -118 -107 -112
-44 -73 54 -5 -73 -117 -107 -107
-45 -74 57 -4 -71 -115 -105 -106
-44 -73 59 0 -68 -112 -102 -107
-41 -68 61 7 -65 -111 -101 -108
-39 -63 63 15 -63 -112 -102 -107
-39 -58 65 19 -61 -110 -100 -104
-39 -49 68 20 -54 -102 -93 -98
-37 -37 71 20 -44 -92 -83 -89
-34 -29 73 20 -39 -88 -78 -83
-34 -27 73 19 -40 -89 -79 -81
-34 -24 73 20 -39 -88 -78 -78
-31 -13 73 24 -30 -81 -71 -71
-24 -0 73 29 -20 -73 -63 -63
-17 4 74 34 -17 -71 -61 -61
-15 0 78 39 -20 -73 -63 -63
-18 -5 81 41 -22 -74 -64 -64
-24 -5 78 39 -20 -73 -63 -63
-27 -4 70 35 -18 -70 -62 -62
-24 -5 63 34 -20 -68 -63 -63
-19 -4 58 34 -25 -65 -63 -63
-15 5 44 24 -29 -63 -63 -59
-13 19 20 4 -30 -63 -63 -53
-10 29 0 -15 -29 -63 -63 -49
-4 32 -5 -20 -29 -61 -61 -48
0 29 -0 -15 -29 -59 -59 -49
-2 26 2 -11 -29 -59 -58 -50
-10 20 0 -10 -29 -63 -59 -49
-18 12 1 -10 -31 -69 -60 -48
-20 5 5 -10 -34 -73 -59 -49
-16 4 7 -14 -37 -74 -57 -50
-10 5 5 -20 -39 -73 -59 -49
-5 4 3 -22 -39 -73 -64 -48
0 0 5 -20 -39 -73 -68 -49
6 -2 10 -15 -40 -73 -69 -54
10 0 15 -10 -44 -73 -68 -59
10 -1 19 -4 -50 -75 -70 -62
10 -10 20 -0 -54 -78 -73 -63
13 -22 19 1 -55 -79 -74 -63
15 -29 20 0 -54 -78 -73 -63
12 -30 23 -1 -55 -77 -73 -64
5 -34 24 -0 -59 -83 -78 -68
1 -46 23 1 -66 -95 -86 -76
-0 -59 24 0 -73 -107 -93 -83
-2 -62 31 -2 -75 -112 -94 -84
-10 -59 39 -5 -73 -112 -93 -83
-23 -61 43 -6 -70 -113 -95 -85
-39 -73 44 -5 -73 -117 -102 -93
-52 -87 44 -4 -81 -123 -111 -102
-59 -93 44 -5 -88 -127 -117 -107
-60 -92 44 -7 -89 -128 -118 -108
-59 -93 44 -10 -88 -127 -117 -107
-59 -98 46 -12 -89 -126 -118 -108
-59 -102 49 -15 -93 -127 -122 -112
-58 -101 50 -18 -97 -130 -126 -115
-59 -102 49 -20 -98 -132 -127 -117
-66 -110 48 -20 -98 -133 -127 -117
-73 -117 49 -20 -98 -132 -127 -117
-72 -114 48 -22 -99 -131 -127 -117
-63 -102 44 -29 -102 -132 -127 -117
-57 -95 37 -37 -105 -134 -126 -116
-63 -102 34 -39 -107 -137 -127 -117
-75 -116 39 -35 -108 -138 -129 -119
-78 -122 49 -29 -107 -137 -132 -122
-68 -116 59 -24 -107 -134 -133 -123
-59 -107 63 -20 -107 -132 -132 -122
-60 -104 61 -16 -107 -133 -132 -122
-68 -107 54 -15 -107 -137 -132 -122
-71 -109 47 -16 -107 -141 -132 -122
-68 -107 44 -15 -107 -142 -132 -122
-65 -104 44 -9 -107 -142 -132 -122
-63 -102 44 -5 -107 -142 -132 -122
-61 -102 44 -8 -107 -143 -132 -122
-59 -102 44 -15 -107 -142 -132 -122
-62 -102 47 -20 -106 -142 -131 -122
-68 -102 49 -24 -102 -142 -127 -117
-71 -105 52 -22 -98 -144 -123 -112
-68 -107 59 -10 -93 -142 -122 -112
-64 -113 79 21 -86 -139 -130 -124
-63 -127 107 63 -73 -137 -142 -142
-65 -151 141 117 -45 -138 -154 -161
-68 -176 176 176 0 -137 -161 -176
-78 -196 212 235 52 -131 -169 -190
-98 -205 244 268 98 -117 -176 -200
-120 -195 261 264 150 -88 -167 -194
-127 -161 249 220 215 -39 -127 -161
-109 -113 207 142 279 26 -60 -105
-73 -68 137 20 303 93 15 -34
-30 -23 43 -154 284 167 98 56
24 49 -73 -366 254 259 210 176
97 155 -199 -571 252 381 364 331
185 268 -317 -737 268 517 537 503
265 376 -421 -887 263 650 700 674
322 503 -527 -1070 229 786 859 849
371 673 -653 -1284 212 968 1064 1062
425 864 -791 -1485 244 1206 1328 1314
454 1031 -915 -1663 277 1420 1571 1542
410 1143 -1006 -1855 234 1509 1689 1670
307 1184 -1062 -2050 125 1472 1672 1687
210 1138 -1089 -2163 20 1372 1582 1631
147 1005 -1085 -2153 -102 1174 1402 1485
68 820 -1050 -2090 -356 752 1031 1172
-58 629 -990 -2045 -751 132 475 699
-176 449 -922 -1982 -1104 -429 -59 220
-217 287 -854 -1834 -1242 -700 -368 -100
-195 156 -776 -1621 -1206 -722 -459 -249
-175 64 -682 -1418 -1133 -691 -483 -330
-176 -5 -576 -1245 -1060 -688 -517 -405
-171 -66 -474 -1067 -932 -655 -524 -452
-146 -112 -386 -874 -752 -561 -473 -439
-120 -126 -310 -695 -586 -452 -397 -385
-102 -112 -239 -547 -459 -366 -332 -327
-87 -90 -176 -419 -350 -296 -283 -284
-73 -73 -127 -307 -249 -234 -239 -249
-64 -65 -90 -218 -176 -190 -202 -217
-59 -63 -59 -156 -132 -161 -171 -185
-53 -67 -29 -110 -97 -136 -148 -159
-44 -68 -5 -68 -63 -112 -127 -137
-38 -65 10 -26 -38 -99 -113 -122
-34 -59 20 5 -24 -93 -102 -112
-33 -61 31 25 -18 -89 -99 -110
-34 -68 39 34 -15 -83 -98 -107
-35 -76 43 42 -14 -80 -97 -102
-34 -78 44 49 -10 -78 -93 -93
-31 -78 49 57 -3 -78 -90 -89
-29 -78 54 63 -0 -78 -88 -88
-29 -80 57 74 2 -76 -85 -88
-29 -83 59 83 5 -73 -83 -88
-25 -86 64 91 15 -68 -81 -87
-20 -88 68 98 24 -63 -78 -83
-19 -88 69 106 30 -58 -70 -75
-24 -88 68 112 34 -54 -63 -68
-29 -88 70 113 41 -51 -61 -66
-29 -88 73 112 49 -49 -63 -68
-26 -88 76 115 54 -46 -64 -67
-24 -88 78 122 54 -44 -63 -63
-24 -88 81 129 53 -42 -59 -58
-24 -88 83 132 54 -39 -54 -54
-22 -88 83 132 58 -34 -49 -49
-20 -88 83 132 63 -29 -44 -44
-18 -89 85 134 67 -24 -41 -40
-15 -88 88 137 68 -20 -39 -39
-12 -85 89 138 66 -16 -37 -40
-10 -83 88 137 68 -15 -34 -39
-11 -83 88 138 75 -16 -32 -35
-10 -83 88 142 83 -15 -29 -29
-7 -83 87 148 85 -11 -26 -25
-5 -83 88 151 83 -5 -24 -24
-6 -84 89 151 81 -1 -22 -25
-5 -83 88 151 83 0 -20 -24
2 -78 84 153 87 2 -16 -18
10 -73 83 156 93 5 -10 -10
15 -71 84 157 98 10 -4 -3
15 -73 83 161 102 15 -0 0
15 -73 77 168 104 20 3 1
15 -68 73 176 107 24 5 -0
15 -61 77 180 111 26 7 -1
15 -59 83 181 117 29 10 0
18 -59 85 182 123 36 14 4
24 -54 83 185 132 44 20 10
27 -45 80 187 141 49 26 16
24 -44 78 190 146 49 29 20
20 -53 76 194 146 47 28 20
20 -59 78 200 146 49 29 20
23 -54 85 206 151 55 35 23
24 -44 88 210 161 63 44 29
22 -42 82 211 170 69 50 34
24 -44 73 210 176 73 54 34
33 -41 70 210 180 78 56 34
44 -34 73 215 185 83 59 39
46 -32 77 226 193 88 62 50
39 -39 78 239 200 93 68 59
32 -46 78 246 205 99 77 64
34 -44 78 249 210 107 88 68
40 -36 78 253 216 115 95 77
44 -29 78 264 224 122 98 88
43 -28 78 278 232 127 99 94
44 -29 78 288 239 132 102 93
55 -25 77 290 244 140 108 94
73 -15 78 293 249 151 117 102
90 -3 81 302 256 162 127 116
98 5 83 317 268 171 137 127
101 10 83 329 282 176 144 133
107 15 83 337 293 181 151 137
114 20 84 343 298 189 160 145
117 24 83 351 303 200 171 156
115 26 79 361 313 212 183 167
117 29 73 371 327 224 195 176
127 35 70 380 337 234 206 185
137 44 68 390 342 244 215 195
138 50 66 401 345 254 224 204
132 49 63 410 351 264 234 210
127 44 61 413 357 274 244 216
127 44 59 410 361 283 254 224
134 55 56 406 365 292 263 237
146 73 54 410 371 303 273 254
161 89 52 420 380 314 284 271
171 98 49 429 386 322 293 283
173 103 44 431 388 325 299 290
171 107 39 429 390 327 307 293
175 113 36 430 394 334 320 298
185 122 34 434 400 346 332 307
194 133 29 436 402 356 339 320
195 142 24 434 400 361 342 332
192 146 21 428 398 362 346 339
195 146 20 420 400 366 351 342
203 147 18 412 402 372 356 344
205 151 15 405 400 376 361 346
199 159 11 398 395 376 365 349
195 166 5 390 390 376 366 351
197 169 -2 378 384 378 364 350
195 166 -10 361 376 376 361 346
187 162 -15 344 365 367 358 339
181 161 -15 332 356 356 351 332
183 163 -14 325 350 349 340 327
181 161 -15 317 342 342 327 322
166 153 -17 302 326 328 317 313
151 142 -15 283 307 307 307 298
149 135 -6 265 290 288 293 281
151 132 5 249 278 273 273 264
143 128 12 231 265 258 250 248
127 117 15 215 249 239 229 234
115 101 17 202 233 218 212 220
107 88 20 190 220 200 195 205
94 82 23 176 210 186 178 189
78 78 24 161 200 171 161 171
65 68 25 148 184 153 145 148
54 49 29 137 161 132 127 122
42 31 35 124 139 113 108 98
34 24 39 112 127 98 93 83
32 26 41 101 123 85 81 77
29 24 44 93 117 73 68 73
20 11 49 84 103 60 52 61
10 -5 54 73 88 49 39 44
8 -16 57 62 79 39 29 27
10 -20 59 54 73 29 20 15
6 -24 60 48 64 19 7 7
-5 -29 59 44 54 10 -5 0
-16 -34 58 40 48 3 -11 -7
-20 -39 59 34 44 -5 -15 -15
-22 -46 63 25 35 -15 -23 -25
-29 -54 68 15 24 -24 -34 -34
-39 -61 69 8 18 -28 -40 -41
-44 -63 68 5 20 -29 -39 -44
-39 -63 67 3 22 -31 -36 -44
-29 -63 68 -0 20 -34 -39 -44
-25 -65 69 -6 15 -38 -47 -45
-29 -68 68 -10 10 -44 -54 -49
-37 -71 67 -11 7 -50 -56 -55
-44 -73 68 -10 5 -54 -54 -59
-49 -77 69 -10 3 -54 -53 -60
-54 -83 68 -10 -0 -54 -54 -59
-60 -90 65 -10 -1 -56 -57 -58
-63 -93 63 -10 0 -59 -59 -59
-61 -90 64 -11 1 -60 -61 -61
-54 -83 68 -15 -0 -59 -63 -63
-47 -76 71 -20 -5 -58 -64 -64
-44 -73 73 -24 -10 -59 -63 -63
-44 -73 73 -25 -13 -60 -61 -62
-44 -73 73 -24 -15 -59 -59 -63
-43 -72 73 -24 -17 -58 -58 -66
-44 -73 73 -24 -20 -59 -59 -68
-46 -76 73 -24 -21 -61 -63 -69
-49 -78 73 -24 -20 -63 -68 -68
-50 -78 73 -23 -19 -63 -72 -67
-49 -78 73 -24 -20 -63 -73 -68
-50 -79 71 -26 -22 -63 -73 -70
-54 -83 68 -29 -24 -63 -73 -73
-58 -86 65 -30 -25 -63 -73 -76
-59 -88 63 -29 -24 -63 -73 -78
-58 -90 62 -26 -23 -65 -73 -78
-59 -93 63 -24 -24 -68 -73 -78
-60 -96 65 -24 -26 -71 -73 -78
-59 -93 68 -24 -29 -73 -73 -78
-57 -87 69 -24 -30 -74 -73 -78
-59 -83 68 -24 -29 -73 -73 -78
-63 -82 67 -24 -26 -71 -71 -78
-59 -78 68 -24 -24 -68 -68 -78
-47 -69 69 -22 -23 -67 -67 -76
-39 -63 68 -20 -24 -68 -68 -73
-44 -68 65 -19 -27 -69 -69 -72
-54 -78 63 -20 -29 -68 -68 -73
-57 -82 62 -20 -30 -65 -65 -74
-54 -78 63 -20 -29 -63 -63 -73
-53 -73 63 -20 -28 -62 -63 -70
-54 -73 63 -20 -29 -63 -63 -68
-52 -74 63 -20 -30 -64 -62 -68
-49 -73 63 -20 -29 -63 -63 -68
-48 -72 63 -19 -26 -61 -66 -68
-49 -73 63 -20 -24 -59 -68 -68
-49 -78 63 -21 -24 -58 -68 -68
-49 -83 63 -20 -24 -59 -68 -68
-49 -85 63 -17 -22 -60 -68 -66
-49 -83 63 -15 -20 -59 -68 -63
-45 -78 63 -15 -19 -57 -66 -60
-39 -73 63 -15 -20 -54 -63 -59
-37 -69 62 -15 -20 -53 -62 -59
-39 -68 63 -15 -20 -54 -63 -59
-43 -68 65 -17 -21 -57 -63 -59
-44 -68 68 -20 -24 -59 -63 -59
-43 -68 69 -20 -27 -59 -63 -59
-44 -68 68 -20 -29 -59 -63 -59
-48 -68 68 -20 -30 -59 -61 -59
-54 -68 68 -20 -29 -59 -59 -59
-57 -68 68 -19 -28 -59 -58 -59
-54 -68 68 -20 -29 -59 -59 -59
-48 -69 68 -22 -30 -59 -59 -59
-44 -68 68 -24 -29 -59 -59 -59
-43 -64 68 -23 -25 -58 -59 -59
-44 -59 68 -24 -24 -59 -59 -59
-45 -57 66 -28 -28 -61 -59 -58
-44 -59 63 -34 -34 -63 -59 -59
-44 -64 60 -38 -38 -63 -59 -61
-44 -68 59 -39 -39 -63 -59 -63
-45 -69 59 -40 -39 -63 -59 -63
-44 -68 59 -39 -39 -63 -59 -63
-42 -65 57 -38 -39 -62 -61 -63
-39 -63 54 -39 -39 -63 -63 -63
-38 -63 53 -42 -40 -66 -65 -62
-39 -63 54 -44 -44 -68 -68 -63
-41 -63 54 -43 -50 -68 -71 -66
-44 -63 54 -44 -54 -68 -73 -68
-45 -65 54 -49 -54 -70 -74 -67
-44 -68 54 -54 -54 -73 -73 -68
-46 -71 54 -54 -56 -73 -72 -72
-54 -73 54 -54 -59 -73 -73 -78
-63 -73 54 -57 -60 -75 -76 -80
-63 -73 54 -63 -59 -78 -78 -78
-51 -73 54 -65 -58 -79 -79 -77
-39 -73 54 -63 -59 -78 -78 -78
-34 -71 54 -61 -58 -78 -78 -79
-34 -68 54 -63 -54 -78 -78 -78
-33 -66 53 -66 -49 -78 -78 -76
-34 -68 54 -68 -49 -78 -78 -78
-39 -71 56 -68 -54 -80 -78 -83
-44 -73 59 -68 -59 -83 -78 -88
-41 -73 60 -68 -60 -84 -78 -90
-34 -73 59 -68 -59 -83 -78 -88
-32 -77 57 -68 -59 -82 -78 -85
-39 -83 54 -68 -63 -83 -78 -83
-48 -88 51 -68 -67 -86 -78 -82
-54 -88 49 -68 -68 -88 -78 -83
-56 -87 49 -67 -66 -88 -78 -85
-54 -88 49 -68 -63 -88 -78 -88
-51 -90 49 -73 -62 -88 -78 -90
-49 -88 49 -78 -63 -88 -78 -88
-49 -78 49 -80 -63 -88 -78 -86
-49 -68 49 -78 -63 -88 -78 -88
-49 -64 49 -74 -63 -90 -78 -95
-49 -68 49 -73 -63 -93 -78 -98
-49 -74 49 -75 -64 -96 -78 -94
-49 -78 49 -78 -68 -98 -78 -88
-49 -81 49 -81 -74 -98 -77 -86
-49 -83 49 -83 -78 -98 -78 -88
-51 -83 51 -83 -79 -98 -80 -89
-54 -83 54 -83 -78 -98 -83 -88
-55 -83 57 -83 -78 -98 -84 -88
-54 -83 59 -83 -78 -98 -83 -88
-51 -85 59 -83 -76 -97 -82 -86
-49 -88 59 -83 -73 -98 -83 -83
-48 -92 59 -84 -72 -100 -86 -82
-49 -93 59 -83 -73 -102 -88 -83
-49 -91 57 -81 -73 -102 -88 -83
-49 -88 54 -78 -73 -102 -88 -83
-49 -87 51 -77 -75 -104 -88 -85
-49 -88 49 -78 -78 -107 -88 -88
-49 -89 49 -80 -81 -108 -88 -89
-49 -88 49 -83 -83 -107 -88 -88
-48 -87 49 -86 -86 -107 -88 -87
-49 -88 49 -88 -88 -107 -88 -88
-50 -89 49 -89 -89 -107 -88 -88
-49 -88 49 -88 -88 -107 -88 -88
-46 -85 49 -87 -87 -107 -88 -89
-44 -83 49 -88 -88 -107 -88 -93
-44 -83 49 -89 -89 -107 -88 -98
-44 -83 49 -88 -88 -107 -88 -98
-44 -82 51 -85 -85 -107 -88 -93
-44 -83 54 -83 -83 -107 -88 -88
-46 -86 57 -83 -83 -105 -87 -88
-49 -88 59 -83 -83 -102 -88 -93
-49 -87 61 -79 -83 -101 -90 -97
-49 -83 63 -73 -83 -102 -93 -98
-49 -77 65 -69 -80 -100 -91 -95
-49 -68 68 -68 -73 -93 -83 -88
-47 -57 71 -69 -64 -83 -73 -79
-44 -49 73 -68 -59 -78 -68 -73
-42 -46 73 -63 -58 -79 -69 -73
-39 -39 73 -54 -54 -78 -68 -73
-33 -25 73 -41 -42 -71 -61 -69
-24 -10 73 -29 -29 -63 -54 -63
-17 -5 76 -17 -25 -61 -52 -61
-15 -10 83 -5 -29 -63 -54 -63
-19 -15 89 6 -32 -64 -55 -64
-24 -15 88 10 -29 -63 -54 -63
-26 -14 80 9 -25 -62 -52 -62
-24 -15 73 10 -24 -63 -49 -63
-19 -14 68 12 -27 -63 -46 -63
-15 -5 54 5 -29 -63 -44 -59
-13 9 28 -15 -29 -63 -44 -53
-10 20 5 -34 -29 -63 -44 -49
-5 22 -3 -39 -29 -61 -42 -48
0 20 -0 -34 -29 -59 -39 -49
2 18 2 -31 -29 -58 -38 -50
-0 15 0 -34 -29 -59 -39 -49
-1 10 1 -37 -31 -61 -40 -48
0 5 5 -39 -34 -63 -39 -49
1 6 7 -43 -35 -63 -37 -50
-0 10 5 -49 -34 -63 -39 -49
-2 12 3 -51 -31 -63 -44 -48
0 10 5 -49 -29 -63 -49 -49
6 7 9 -46 -28 -65 -50 -54
10 5 15 -44 -29 -68 -49 -59
10 1 19 -41 -31 -73 -50 -62
10 -10 20 -39 -34 -78 -54 -63
11 -22 19 -38 -35 -80 -57 -63
10 -29 20 -39 -34 -78 -59 -63
3 -30 23 -40 -34 -77 -62 -64
-5 -34 24 -39 -39 -83 -68 -68
-9 -46 22 -38 -50 -93 -77 -76
-10 -59 20 -39 -63 -102 -83 -83
-13 -63 23 -42 -72 -104 -84 -84
-20 -59 29 -44 -73 -102 -83 -83
-30 -59 33 -45 -67 -102 -85 -85
-39 -68 34 -44 -63 -107 -93 -93
-46 -78 34 -44 -64 -113 -102 -102
-49 -83 34 -44 -68 -117 -107 -107
-51 -85 34 -44 -69 -120 -108 -108
-54 -93 34 -44 -68 -122 -107 -107
-58 -105 36 -44 -69 -124 -108 -108
-59 -112 39 -44 -73 -127 -112 -112
-58 -108 40 -45 -77 -130 -115 -116
-59 -102 39 -44 -78 -132 -117 -117
-66 -103 38 -42 -78 -133 -117 -117
-73 -107 39 -39 -78 -132 -117 -117
-72 -104 42 -38 -78 -131 -117 -119
-63 -93 44 -39 -78 -132 -117 -122
-57 -86 44 -40 -78 -134 -116 -124
-63 -93 44 -39 -78 -137 -117 -127
-73 -106 44 -38 -78 -138 -119 -130
-73 -112 44 -39 -78 -137 -122 -132
-60 -107 44 -41 -78 -134 -122 -132
-49 -98 44 -39 -78 -132 -122 -132
-51 -95 44 -35 -78 -132 -122 -132
-59 -98 44 -34 -78 -132 -122 -132
-62 -100 44 -35 -78 -132 -122 -132
-59 -98 44 -34 -78 -132 -122 -132
-58 -97 45 -28 -80 -132 -123 -133
-59 -98 44 -24 -83 -132 -122 -132
-59 -101 44 -27 -87 -132 -122 -132
-59 -102 44 -34 -88 -132 -122 -132
-63 -101 44 -39 -86 -132 -124 -132
-68 -98 39 -44 -78 -132 -122 -127
-71 -98 35 -42 -69 -133 -121 -122
-68 -98 39 -29 -63 -132 -122 -122
-67 -104 59 -0 -60 -132 -131 -134
-73 -117 88 34 -54 -132 -142 -151
-82 -140 121 79 -32 -135 -153 -169
-88 -166 156 137 10 -137 -161 -185
-94 -190 197 209 61 -139 -174 -205
-107 -205 234 264 107 -137 -190 -224
-123 -201 255 280 158 -119 -189 -226
-127 -171 249 249 224 -78 -156 -200
-112 -129 221 185 292 -21 -100 -155
-83 -93 176 83 322 34 -44 -102
-46 -56 108 -68 308 95 20 -31
5 10 5 -268 283 181 122 78
81 109 -123 -477 288 301 276 229
171 210 -249 -654 312 434 449 395
252 303 -359 -813 316 561 609 557
312 425 -468 -1001 288 698 771 732
372 606 -597 -1220 276 898 995 963
444 815 -737 -1426 312 1162 1284 1241
491 997 -862 -1606 348 1397 1548 1491
459 1123 -956 -1807 312 1509 1689 1641
364 1188 -1029 -2028 224 1523 1726 1706
278 1182 -1084 -2182 161 1514 1729 1733
229 1089 -1108 -2213 86 1413 1648 1675
156 927 -1089 -2177 -151 1036 1323 1406
17 736 -1032 -2146 -577 376 732 908
-127 547 -961 -2095 -992 -278 112 366
-193 379 -892 -1962 -1189 -635 -275 -10
-185 244 -815 -1758 -1187 -703 -410 -190
-169 140 -722 -1551 -1134 -691 -455 -290
-171 49 -615 -1367 -1084 -703 -512 -390
-168 -34 -514 -1180 -984 -690 -546 -464
-146 -93 -425 -982 -820 -610 -512 -468
-120 -111 -345 -796 -650 -502 -435 -417
-102 -98 -268 -639 -508 -410 -361 -356
-87 -78 -199 -504 -385 -336 -305 -311
-73 -63 -146 -386 -278 -273 -259 -278
-64 -54 -107 -289 -201 -226 -220 -246
-59 -49 -73 -215 -151 -190 -185 -210
-53 -49 -41 -156 -110 -159 -158 -180
-44 -49 -15 -107 -73 -132 -137 -156
-38 -48 2 -64 -46 -119 -123 -142
-34 -49 15 -34 -29 -112 -112 -132
-33 -57 29 -15 -19 -108 -109 -130
-34 -68 39 -5 -15 -102 -107 -127
-35 -76 43 8 -13 -99 -106 -121
-34 -78 44 24 -10 -98 -102 -112
-31 -78 49 42 -3 -98 -100 -107
-29 -78 54 54 -0 -98 -98 -107
-29 -78 57 62 2 -96 -95 -107
-29 -78 59 63 5 -93 -93 -107
-25 -78 64 64 15 -88 -91 -106
-20 -78 68 68 24 -83 -88 -102
-16 -78 69 77 28 -77 -80 -94
-15 -78 68 83 29 -73 -73 -88
-13 -78 70 84 33 -70 -71 -86
-10 -78 73 83 39 -68 -73 -88
-7 -78 74 86 44 -65 -75 -87
-5 -78 73 93 44 -63 -73 -83
-4 -78 73 100 43 -61 -68 -77
-5 -78 73 102 44 -59 -63 -73
-8 -79 73 102 46 -56 -58 -70
-15 -83 73 102 49 -54 -54 -68
-22 -87 75 104 50 -52 -51 -67
-24 -88 78 107 49 -49 -49 -68
-22 -85 78 108 47 -45 -47 -69
-20 -83 78 107 49 -44 -44 -68
-21 -83 78 108 56 -45 -41 -65
-20 -83 78 112 63 -44 -39 -59
-12 -78 77 118 67 -36 -37 -51
-0 -68 78 122 68 -24 -34 -44
10 -59 79 122 70 -14 -31 -38
15 -54 78 122 73 -10 -29 -34
17 -53 74 122 77 -11 -28 -31
15 -54 73 122 83 -15 -29 -29
10 -58 74 120 89 -17 -30 -29
5 -63 73 122 93 -15 -29 -29
4 -65 67 129 93 -10 -27 -29
5 -63 63 137 93 -5 -24 -29
5 -59 67 141 94 -3 -22 -29
5 -59 73 142 98 0 -20 -29
9 -59 75 143 104 6 -15 -26
15 -54 73 146 112 15 -5 -20
17 -45 71 148 121 20 5 -14
15 -44 68 151 127 20 10 -10
15 -51 66 155 127 18 10 -10
24 -54 68 161 127 20 10 -10
38 -45 75 166 132 26 16 -6
44 -34 78 171 142 34 24 0
40 -32 72 174 149 40 30 5
34 -34 63 176 151 44 34 5
37 -31 60 178 152 49 37 5
44 -24 63 185 156 54 39 10
45 -24 67 197 163 57 41 20
39 -34 68 210 171 59 44 29
33 -43 68 218 176 62 51 34
34 -44 68 220 181 68 59 39
37 -39 68 221 187 76 65 48
34 -39 68 229 195 83 68 59
26 -45 69 240 203 88 70 64
24 -49 68 249 210 93 73 63
36 -41 65 251 215 101 79 64
59 -20 63 254 220 112 88 73
79 2 63 263 227 123 98 87
88 15 63 278 239 132 107 98
89 17 63 290 251 137 115 103
88 15 63 298 259 142 122 107
88 14 64 304 261 150 131 115
88 15 63 312 264 161 142 127
88 17 59 322 274 173 154 137
93 20 54 332 288 185 166 146
105 25 51 341 298 195 176 156
117 34 49 351 303 205 185 166
125 43 47 362 308 214 194 175
132 49 44 371 317 224 205 181
140 51 41 374 326 234 215 187
146 54 39 371 332 244 224 195
146 62 36 369 336 253 233 205
142 73 34 376 342 264 244 215
140 82 32 389 350 275 255 225
142 88 29 400 356 283 264 234
145 96 24 402 359 286 270 240
151 107 20 400 361 288 278 244
162 120 18 401 366 295 291 249
176 132 15 405 371 307 303 259
185 143 10 408 373 319 309 272
185 151 5 405 371 327 312 283
182 155 1 398 369 331 316 289
185 156 -0 390 371 337 322 293
193 155 -2 383 373 343 328 298
195 156 -5 376 371 346 332 303
189 160 -10 369 366 345 335 308
185 166 -15 361 361 346 337 312
188 169 -20 349 359 350 339 317
190 166 -24 332 356 351 342 322
185 162 -25 315 351 345 345 324
181 161 -24 303 346 337 342 322
184 165 -23 296 341 334 333 318
181 166 -24 288 332 332 322 312
166 161 -26 273 317 323 314 302
151 151 -24 254 298 307 307 288
149 145 -17 238 281 291 296 271
151 146 -10 224 268 278 278 254
143 146 -6 209 255 266 258 238
127 137 -5 195 239 249 239 224
115 121 -4 182 223 229 222 210
107 107 -0 171 210 210 205 195
94 101 3 157 200 195 187 179
78 98 5 142 190 181 171 161
63 86 6 127 176 163 155 142
49 63 10 112 156 142 137 122
34 42 16 97 137 122 118 105
24 34 20 83 127 107 102 93
22 36 22 72 122 95 88 85
20 34 24 63 112 83 73 73
10 21 29 54 94 71 54 55
0 5 34 44 78 59 39 34
-2 -6 37 33 69 47 29 17
-0 -10 39 24 63 34 20 5
-4 -14 40 18 53 20 7 -3
-15 -20 39 15 44 10 -5 -10
-25 -25 38 12 42 3 -10 -16
-29 -29 39 5 44 -5 -10 -24
-32 -35 44 -5 42 -15 -14 -34
-39 -44 49 -15 34 -24 -24 -44
-49 -51 50 -20 23 -28 -34 -51
-54 -54 49 -20 15 -29 -39 -54
-48 -54 48 -19 8 -31 -43 -54
-39 -54 49 -20 0 -34 -49 -54
-36 -56 50 -21 -10 -39 -57 -55
-44 -59 49 -20 -20 -44 -63 -59
-56 -62 48 -16 -29 -50 -65 -64
-63 -63 49 -10 -34 -54 -63 -68
-64 -63 50 -5 -37 -54 -62 -69
-63 -63 49 -0 -39 -54 -63 -68
-63 -63 46 5 -40 -56 -65 -67
-63 -63 44 10 -39 -59 -68 -68
-62 -63 43 15 -38 -60 -71 -71
-59 -63 44 20 -39 -59 -73 -73
-56 -63 44 23 -43 -58 -74 -74
-54 -63 44 24 -49 -59 -73 -73
-54 -63 44 24 -54 -60 -71 -74
-54 -63 44 24 -59 -59 -68 -78
-53 -62 44 24 -64 -58 -67 -84
-54 -63 44 24 -68 -59 -68 -88
-56 -66 44 24 -69 -60 -71 -89
-59 -68 44 24 -68 -59 -73 -88
-60 -69 44 24 -67 -56 -73 -88
-59 -68 44 24 -68 -54 -73 -88
-58 -68 44 26 -69 -53 -73 -88
-59 -68 44 29 -68 -54 -73 -88
-60 -68 44 34 -66 -54 -73 -88
-59 -68 44 39 -63 -54 -73 -88
-59 -71 43 43 -62 -54 -73 -88
-63 -78 44 44 -63 -54 -73 -88
-67 -84 46 44 -66 -54 -73 -88
-68 -83 49 44 -68 -54 -73 -88
-66 -79 50 44 -69 -54 -73 -88
-68 -78 49 44 -68 -54 -73 -88
-71 -80 48 43 -66 -52 -71 -89
-68 -78 49 44 -63 -49 -68 -88
-56 -69 50 48 -60 -46 -67 -86
-49 -63 49 54 -59 -44 -68 -83
-54 -68 46 58 -59 -42 -69 -82
-63 -78 44 59 -59 -39 -68 -83
-64 -80 44 60 -58 -36 -64 -82
-59 -73 44 63 -54 -34 -59 -78
-55 -65 44 66 -50 -33 -56 -72
-54 -63 44 68 -49 -34 -54 -68
-52 -63 47 70 -50 -35 -51 -67
-49 -63 54 73 -49 -34 -49 -68
-48 -62 60 76 -46 -31 -49 -68
-49 -63 63 78 -44 -29 -49 -68
-51 -66 60 78 -46 -28 -49 -68
-54 -68 54 78 -49 -29 -49 -68
-58 -66 48 80 -50 -30 -49 -66
-59 -63 44 83 -49 -29 -49 -63
-55 -61 44 83 -48 -27 -47 -60
-49 -63 44 83 -49 -24 -44 -59
-47 -67 44 83 -50 -23 -43 -59
-49 -68 44 83 -49 -24 -44 -59
-51 -64 45 82 -47 -27 -44 -57
-49 -54 44 83 -44 -29 -44 -54
-45 -44 42 86 -41 -29 -44 -51
-44 -39 39 88 -39 -29 -44 -49
-48 -42 38 88 -39 -29 -43 -49
-54 -49 39 88 -39 -29 -44 -49
-56 -55 39 89 -38 -29 -46 -49
-54 -59 39 88 -39 -29 -49 -49
-50 -60 39 84 -42 -29 -50 -49
-49 -59 39 78 -44 -29 -49 -49
-51 -54 39 74 -44 -28 -49 -49
-54 -49 39 73 -44 -29 -49 -49
-55 -47 39 72 -48 -32 -49 -48
-54 -49 39 73 -54 -34 -49 -49
-53 -54 39 76 -58 -34 -49 -52
-54 -59 39 78 -59 -34 -49 -54
-55 -61 40 78 -59 -34 -49 -54
-54 -59 39 78 -59 -34 -49 -54
-52 -56 36 78 -59 -33 -51 -54
-49 -54 34 78 -59 -34 -54 -54
-48 -56 33 77 -59 -37 -57 -53
-49 -59 34 78 -63 -39 -59 -54
-51 -62 34 82 -69 -39 -61 -57
-54 -63 34 83 -73 -39 -63 -59
-55 -65 34 78 -73 -41 -64 -59
-54 -68 34 73 -73 -44 -63 -59
-55 -72 34 72 -75 -44 -62 -63
-63 -73 34 73 -78 -44 -63 -68
-72 -71 34 71 -79 -46 -66 -70
-73 -68 34 68 -78 -49 -68 -68
-62 -65 34 68 -77 -50 -69 -67
-49 -63 34 73 -78 -49 -68 -68
-41 -58 34 77 -79 -49 -68 -69
-34 -49 34 78 -78 -49 -68 -68
-26 -41 34 78 -77 -49 -68 -67
-24 -39 34 78 -78 -49 -68 -68
-32 -45 35 78 -83 -51 -68 -73
-44 -54 34 78 -88 -54 -68 -78
-48 -60 31 77 -89 -55 -68 -80
-44 -63 29 78 -88 -54 -68 -78
-41 -65 28 80 -87 -53 -68 -75
-44 -68 29 83 -88 -54 -68 -73
-50 -69 29 86 -89 -57 -68 -72
-54 -68 29 88 -88 -59 -68 -73
-55 -67 29 89 -85 -59 -68 -75
-54 -68 29 88 -83 -59 -68 -78
-51 -70 29 83 -83 -59 -68 -80
-49 -68 29 78 -83 -59 -68 -78
-49 -62 29 76 -83 -59 -68 -76
-49 -59 29 78 -83 -59 -68 -78
-49 -62 29 81 -83 -61 -67 -84
-49 -68 29 83 -83 -63 -68 -88
-49 -71 29 83 -82 -64 -70 -84
-49 -68 29 83 -83 -63 -73 -78
-48 -64 29 83 -85 -61 -75 -76
-49 -63 29 83 -88 -59 -78 -78
-53 -65 29 83 -89 -59 -81 -79
-59 -68 29 83 -88 -59 -83 -78
-63 -71 29 83 -88 -59 -83 -77
-63 -73 29 83 -88 -59 -83 -78
-61 -73 31 84 -88 -59 -83 -79
-63 -73 34 83 -88 -59 -83 -78
-69 -73 37 80 -88 -59 -81 -77
-73 -73 39 78 -88 -59 -78 -78
-68 -75 40 77 -88 -61 -77 -80
-59 -78 39 78 -88 -63 -78 -83
-52 -80 36 78 -90 -64 -81 -84
-49 -78 34 78 -93 -63 -83 -83
-47 -72 33 78 -96 -62 -83 -80
-44 -68 34 78 -98 -63 -83 -78
-42 -69 34 78 -99 -66 -83 -77
-44 -73 34 78 -98 -68 -83 -78
-47 -75 34 77 -97 -69 -83 -78
-49 -73 34 78 -98 -68 -83 -78
-49 -70 34 79 -100 -67 -83 -78
-49 -68 34 78 -102 -68 -83 -78
-49 -67 34 75 -102 -69 -83 -78
-49 -68 34 73 -102 -68 -83 -78
-49 -71 34 73 -102 -67 -83 -77
-49 -73 34 73 -102 -68 -83 -78
-49 -74 34 73 -102 -69 -83 -80
-49 -73 34 73 -102 -68 -83 -83
-48 -73 34 75 -102 -65 -83 -84
-49 -73 34 78 -102 -68 -83 -83
-51 -73 34 78 -102 -77 -84 -82
-54 -73 34 78 -102 -83 -83 -83
-55 -73 34 78 -102 -80 -80 -83
-54 -73 34 78 -102 -73 -78 -83
-53 -75 33 77 -102 -70 -79 -82
-54 -78 34 78 -102 -73 -83 -83
-55 -82 36 81 -102 -75 -86 -84
-54 -83 39 83 -102 -73 -88 -83
-52 -81 40 83 -101 -71 -88 -80
-49 -78 39 83 -102 -73 -88 -78
-48 -77 39 85 -104 -76 -88 -77
-49 -78 39 88 -107 -78 -88 -78
-50 -79 39 89 -108 -78 -88 -78
-49 -78 39 88 -107 -78 -88 -78
-47 -77 39 88 -107 -78 -88 -78
-49 -78 39 88 -107 -78 -88 -78
-55 -79 39 88 -107 -78 -88 -78
-59 -78 39 88 -107 -78 -88 -78
-57 -75 39 88 -106 -78 -88 -79
-54 -73 39 88 -107 -78 -88 -83
-54 -73 39 89 -108 -78 -88 -88
-54 -73 39 93 -107 -78 -88 -88
-49 -72 41 99 -104 -78 -89 -83
-44 -73 44 102 -102 -78 -88 -78
-43 -74 47 102 -101 -76 -86 -77
-44 -73 49 102 -102 -73 -83 -78
-42 -68 51 106 -102 -72 -83 -79
-39 -63 54 112 -102 -73 -83 -78
-39 -58 58 116 -98 -70 -79 -75
-39 -49 63 117 -88 -59 -68 -68
-37 -37 69 117 -75 -46 -55 -59
-34 -29 73 117 -68 -39 -49 -54
-35 -27 74 118 -67 -39 -50 -54
-39 -24 73 122 -63 -39 -49 -54
-39 -13 73 129 -52 -32 -42 -50
-34 -0 73 137 -39 -24 -34 -44
-27 3 74 142 -33 -22 -32 -42
-24 -5 78 146 -34 -24 -34 -44
-28 -13 81 148 -34 -25 -35 -45
-34 -15 78 146 -29 -24 -34 -44
-37 -14 70 143 -24 -23 -33 -42
-34 -15 63 142 -24 -24 -34 -39
-28 -14 58 142 -27 -24 -34 -35
-24 -5 44 132 -29 -24 -34 -29
-22 9 18 111 -29 -24 -34 -23
-20 20 -5 93 -29 -24 -34 -20
-15 22 -13 88 -29 -22 -32 -19
-10 20 -10 93 -29 -20 -29 -20
-8 18 -8 97 -31 -19 -28 -20
-10 15 -10 98 -34 -20 -29 -20
-11 9 -9 98 -39 -22 -30 -19
-10 5 -5 98 -44 -24 -29 -20
-9 9 -3 94 -48 -24 -27 -21
-10 20 -5 88 -49 -24 -29 -20
-12 29 -7 86 -49 -24 -34 -19
-10 29 -5 88 -49 -24 -39 -20
-4 22 -1 91 -50 -26 -40 -24
-0 10 5 93 -54 -29 -39 -29
0 -4 9 95 -59 -34 -41 -32
0 -20 10 98 -63 -39 -44 -34
1 -33 9 99 -64 -42 -45 -36
-0 -39 10 98 -63 -44 -44 -39
-7 -40 13 97 -63 -47 -44 -43
-15 -44 15 98 -68 -54 -49 -49
-19 -54 16 99 -76 -65 -57 -57
-20 -63 20 98 -83 -73 -63 -63
-22 -64 29 96 -86 -75 -64 -64
-29 -59 39 93 -83 -73 -63 -63
-39 -59 44 90 -80 -73 -65 -65
-49 -68 44 88 -83 -78 -73 -73
-56 -79 44 85 -91 -84 -82 -82
-59 -83 44 83 -98 -88 -88 -88
-59 -82 44 82 -100 -91 -91 -89
-59 -83 44 83 -98 -93 -93 -88
-60 -89 46 84 -98 -95 -97 -89
-59 -93 49 83 -102 -98 -102 -93
-57 -92 50 80 -106 -100 -106 -97
-59 -93 49 78 -107 -102 -107 -98
-66 -100 48 77 -107 -102 -107 -98
-73 -107 49 78 -107 -102 -107 -98
-72 -104 50 78 -107 -101 -107 -98
-63 -93 49 78 -107 -102 -107 -98
-57 -86 46 77 -107 -104 -106 -97
-63 -93 44 78 -107 -107 -107 -98
-75 -106 43 79 -107 -108 -110 -100
-78 -112 44 78 -107 -107 -112 -102
-68 -106 44 76 -107 -104 -113 -102
-59 -98 44 78 -107 -102 -112 -102
-61 -98 44 82 -107 -103 -112 -102
-68 -107 44 83 -107 -107 -112 -102
-71 -116 44 82 -107 -111 -112 -102
-68 -117 44 83 -107 -112 -112 -102
-64 -111 44 89 -107 -112 -112 -103
-59 -102 44 93 -107 -112 -112 -102
-52 -96 44 90 -107 -113 -112 -102
-49 -93 44 83 -107 -112 -112 -102
-57 -96 45 81 -105 -112 -113 -104
-73 -102 44 83 -102 -112 -112 -102
-86 -111 44 91 -98 -114 -112 -101
-88 -117 49 107 -93 -112 -112 -102
-88 -124 68 137 -83 -109 -120 -114
-93 -137 98 176 -63 -107 -132 -132
-102 -161 133 227 -27 -109 -145 -152
-107 -185 166 283 20 -107 -151 -166
-106 -200 198 338 68 -99 -153 -175
-107 -200 224 366 107 -83 -151 -176
-111 -182 236 357 153 -51 -134 -161
-107 -142 220 307 215 0 -88 -122
-83 -89 175 221 278 67 -17 -59
-39 -39 102 88 303 137 63 20
14 13 5 -97 284 213 152 119
73 88 -112 -317 254 307 268 244
141 194 -238 -528 252 432 425 400
215 307 -356 -703 268 576 605 571
282 416 -461 -863 264 717 776 743
332 542 -566 -1050 229 854 937 917
377 705 -686 -1260 210 1026 1132 1122
425 883 -815 -1455 239 1245 1377 1363
448 1039 -931 -1629 270 1442 1604 1581
400 1143 -1016 -1816 224 1519 1709 1699
291 1175 -1067 -1996 108 1464 1674 1697
185 1114 -1089 -2085 -10 1333 1553 1611
112 964 -1080 -2051 -147 1100 1339 1432
29 771 -1040 -1973 -405 664 952 1104
-91 588 -977 -1921 -786 64 410 640
-195 425 -903 -1851 -1109 -454 -93 185
-223 279 -828 -1694 -1218 -683 -372 -112
-195 156 -747 -1475 -1167 -683 -449 -249
-174 65 -656 -1273 -1095 -648 -470 -324
-176 -5 -556 -1104 -1031 -644 -503 -395
-171 -66 -461 -929 -909 -608 -508 -437
-146 -112 -376 -737 -732 -512 -454 -420
-121 -126 -302 -564 -569 -408 -377 -365
-107 -112 -234 -425 -449 -332 -312 -307
-96 -90 -174 -307 -346 -272 -263 -263
-83 -73 -127 -200 -249 -215 -220 -229
-74 -62 -92 -112 -179 -172 -184 -199
-68 -54 -63 -49 -137 -142 -156 -171
-62 -51 -36 -2 -105 -117 -135 -147
-54 -49 -15 39 -73 -93 -117 -127
-48 -51 -0 78 -50 -82 -105 -114
-44 -59 10 107 -39 -78 -98 -107
-43 -75 21 125 -35 -77 -98 -108
-44 -88 29 132 -34 -73 -98 -107
-43 -93 33 140 -33 -70 -97 -100
-39 -88 34 146 -29 -68 -93 -88
-32 -82 39 154 -22 -68 -90 -80
-29 -78 44 161 -20 -68 -88 -78
-29 -78 47 172 -19 -66 -83 -78
-29 -78 49 181 -15 -63 -78 -78
-25 -78 54 188 -4 -59 -73 -77
-20 -78 59 195 5 -54 -68 -73
-18 -78 60 205 9 -48 -60 -65
-20 -78 59 215 10 -44 -54 -59
-21 -78 60 220 14 -41 -52 -57
-20 -78 63 220 20 -39 -54 -59
-19 -80 64 222 24 -37 -56 -58
-20 -83 63 229 24 -34 -54 -54
-23 -87 63 236 23 -32 -49 -48
-24 -88 63 239 24 -29 -44 -44
-24 -88 63 239 26 -26 -40 -41
-24 -88 63 239 29 -24 -39 -39
-25 -89 65 241 30 -22 -39 -38
-24 -88 68 244 29 -20 -39 -39
-20 -84 69 245 27 -17 -37 -40
-15 -78 68 244 29 -15 -34 -39
-12 -74 68 244 36 -15 -31 -35
-10 -73 68 249 44 -15 -29 -29
-7 -73 67 255 48 -13 -26 -26
-5 -73 68 259 49 -10 -24 -29
-5 -74 69 259 51 -9 -22 -33
-5 -73 68 259 54 -10 -20 -34
-2 -70 65 258 58 -10 -18 -29
-0 -68 63 254 63 -10 -15 -20
-2 -69 64 249 69 -9 -12 -13
-5 -73 63 249 73 -5 -10 -10
-6 -75 58 256 73 0 -8 -10
-5 -73 54 264 73 5 -5 -10
-5 -69 57 267 74 7 -2 -11
-5 -68 63 268 78 10 -0 -10
-1 -67 65 269 82 16 4 -7
5 -59 63 273 88 24 10 -0
8 -47 61 275 94 29 17 7
5 -44 59 278 98 29 20 10
2 -52 58 282 98 27 19 10
5 -59 63 288 98 29 20 10
12 -54 73 293 103 36 26 14
15 -44 78 298 112 44 34 20
14 -41 73 301 121 50 40 24
15 -44 63 303 127 54 44 24
23 -42 60 305 131 58 47 24
34 -34 63 312 137 63 49 29
38 -30 67 324 144 68 51 38
34 -34 68 337 151 73 54 44
31 -37 68 344 156 80 60 46
34 -34 68 346 161 88 68 49
41 -26 66 348 166 96 74 57
44 -20 63 356 171 102 78 68
43 -19 61 368 176 106 80 73
44 -20 59 376 181 112 83 73
50 -17 56 378 185 120 89 74
59 -10 54 381 190 132 98 83
65 -1 54 390 198 143 108 97
68 5 54 405 210 151 117 107
71 10 54 417 224 156 123 110
78 15 54 425 234 161 127 112
86 21 55 431 239 170 133 117
88 24 54 439 244 181 142 127
84 22 49 449 251 191 154 137
83 15 44 459 259 200 166 146
89 10 41 468 262 207 176 156
98 15 39 478 264 215 185 166
105 28 37 489 269 224 194 174
112 44 34 498 278 234 205 181
120 56 32 501 287 245 215 187
127 63 29 498 293 254 224 195
132 67 26 492 297 263 233 204
137 68 24 493 303 273 244 215
144 66 23 500 311 284 256 225
151 68 20 508 317 293 264 234
154 78 13 510 320 296 270 240
156 93 5 508 322 298 278 244
164 109 -1 508 327 305 291 249
176 122 -5 512 332 317 303 259
185 133 -10 514 334 328 309 274
185 142 -15 512 332 332 312 288
182 146 -19 506 330 333 316 298
185 146 -20 498 332 337 322 303
193 147 -21 490 336 345 328 307
195 151 -24 483 337 351 332 312
189 159 -28 476 335 354 335 317
185 166 -34 468 332 356 337 322
187 169 -40 456 328 359 337 324
185 166 -44 439 322 356 337 322
176 161 -45 422 314 346 336 317
171 161 -44 410 307 337 332 312
177 168 -43 404 304 335 324 309
181 176 -44 395 298 337 317 307
173 178 -46 379 285 332 313 301
161 171 -44 361 268 317 307 288
156 161 -37 345 252 299 294 271
151 151 -29 332 239 283 273 254
136 141 -25 318 225 268 249 238
117 127 -24 303 210 249 229 224
106 111 -23 290 195 228 214 210
98 98 -20 278 185 210 200 195
84 92 -17 264 178 195 186 178
68 88 -15 249 171 181 171 161
57 78 -13 235 157 164 155 144
49 59 -10 224 137 146 137 127
41 40 -5 212 117 130 118 112
34 34 -0 200 107 117 102 102
32 39 4 188 104 105 90 94
29 44 10 176 98 93 78 83
20 38 17 163 83 80 63 65
10 24 24 151 68 68 49 44
8 11 28 140 60 55 39 26
10 -0 29 132 54 39 29 15
6 -11 30 126 45 22 17 7
-5 -20 29 122 34 10 5 0
-16 -26 28 118 27 2 -3 -7
-20 -29 29 112 20 -5 -10 -15
-22 -35 34 103 8 -15 -21 -25
-29 -44 39 93 -5 -24 -34 -34
-39 -51 40 88 -13 -28 -41 -41
-44 -54 39 88 -15 -29 -39 -44
-39 -54 38 90 -16 -31 -36 -44
-29 -54 39 88 -20 -34 -39 -44
-24 -57 40 81 -25 -39 -49 -47
-29 -63 39 73 -29 -44 -59 -54
-38 -69 38 69 -31 -50 -64 -62
-44 -73 39 68 -34 -54 -63 -68
-47 -74 40 68 -38 -54 -62 -69
-49 -73 39 68 -44 -54 -63 -68
-52 -73 36 68 -48 -56 -65 -67
-54 -73 34 68 -49 -59 -68 -68
-55 -73 33 66 -48 -60 -71 -70
-54 -73 34 59 -49 -59 -73 -73
-53 -73 34 50 -54 -58 -74 -74
-54 -73 34 44 -59 -59 -73 -73
-55 -72 34 43 -59 -60 -71 -70
-54 -68 34 44 -54 -59 -68 -68
-53 -64 34 45 -50 -58 -67 -67
-54 -63 34 44 -49 -59 -68 -68
-56 -65 34 44 -49 -61 -71 -68
-59 -68 34 44 -49 -63 -73 -68
-60 -68 34 44 -48 -63 -73 -68
-59 -68 34 44 -49 -63 -73 -68
-58 -69 34 44 -51 -63 -73 -70
-59 -73 34 44 -54 -63 -73 -73
-60 -76 34 46 -55 -63 -73 -76
-59 -78 34 49 -54 -63 -73 -78
-58 -80 33 52 -51 -63 -73 -78
-59 -83 34 54 -49 -63 -73 -78
-60 -86 36 54 -48 -63 -73 -78
-59 -83 39 54 -49 -63 -73 -78
-57 -77 40 54 -50 -63 -73 -78
-59 -73 39 54 -49 -63 -73 -78
-63 -72 38 53 -47 -61 -71 -78
-59 -68 39 54 -44 -59 -68 -78
-47 -59 40 56 -41 -58 -67 -76
-39 -54 39 59 -39 -59 -68 -73
-44 -59 36 60 -39 -60 -69 -72
-54 -68 34 59 -39 -59 -68 -73
-57 -72 33 58 -38 -56 -65 -74
-54 -68 34 59 -34 -54 -63 -73
-53 -64 34 59 -30 -53 -63 -70
-54 -63 34 59 -29 -54 -63 -68
-52 -64 34 58 -30 -55 -61 -68
-49 -63 34 59 -29 -54 -59 -68
-48 -62 34 60 -26 -51 -58 -68
-49 -63 34 59 -24 -49 -59 -68
-49 -64 34 56 -24 -48 -59 -68
-49 -63 34 54 -24 -49 -59 -68
-49 -59 34 54 -22 -50 -59 -66
-49 -54 34 54 -20 -49 -59 -63
-45 -52 34 54 -19 -47 -57 -60
-39 -54 34 54 -20 -44 -54 -59
-36 -57 34 55 -20 -43 -53 -59
-39 -59 34 54 -20 -44 -54 -59
-43 -59 33 51 -20 -47 -56 -59
-44 -59 29 49 -20 -49 -59 -59
-43 -59 24 49 -20 -49 -62 -59
-44 -59 20 49 -20 -49 -63 -59
-50 -61 19 49 -20 -51 -63 -59
-59 -63 20 49 -20 -54 -63 -59
-64 -66 20 50 -19 -57 -65 -59
-63 -68 20 49 -20 -59 -68 -59
-58 -69 20 44 -22 -60 -69 -59
-54 -68 20 39 -24 -59 -68 -59
-53 -64 20 36 -24 -58 -68 -59
-54 -59 20 34 -24 -59 -68 -59
-54 -57 20 33 -28 -61 -68 -58
-54 -59 20 34 -34 -63 -68 -59
-54 -64 20 37 -38 -63 -68 -61
-54 -68 20 39 -39 -63 -68 -63
-53 -70 21 39 -37 -63 -68 -63
-49 -68 20 39 -34 -63 -68 -63
-43 -65 17 40 -31 -62 -70 -63
-39 -63 15 39 -29 -63 -73 -63
-38 -63 16 36 -30 -66 -76 -62
-39 -63 20 34 -34 -68 -78 -63
-42 -63 23 35 -40 -68 -81 -66
-44 -63 24 34 -44 -68 -83 -68
-45 -64 24 29 -44 -70 -84 -67
-44 -68 24 24 -44 -73 -83 -68
-46 -72 24 23 -46 -73 -82 -72
-54 -73 24 24 -49 -73 -83 -78
-61 -70 24 21 -50 -75 -86 -80
-54 -63 24 15 -49 -78 -88 -78
-35 -57 24 13 -48 -79 -89 -77
-20 -54 24 15 -49 -78 -88 -78
-23 -55 23 17 -50 -78 -88 -79
-39 -59 20 15 -49 -78 -88 -78
-54 -64 16 12 -48 -78 -88 -76
-63 -68 15 10 -49 -78 -88 -78
-69 -71 17 10 -54 -80 -88 -83
-73 -73 20 10 -59 -83 -88 -88
-70 -73 21 10 -60 -84 -88 -90
-63 -73 20 10 -59 -83 -88 -88
-57 -73 20 10 -58 -82 -88 -85
-54 -73 20 10 -59 -83 -88 -83
-54 -71 20 9 -60 -86 -88 -82
-54 -68 20 10 -59 -88 -88 -83
-55 -66 20 11 -56 -88 -88 -85
-54 -68 20 10 -54 -88 -88 -88
-51 -70 20 5 -54 -88 -88 -90
-49 -68 20 0 -54 -88 -88 -88
-48 -62 20 -2 -54 -88 -90 -86
-49 -59 20 -0 -54 -88 -93 -88
-49 -62 20 3 -54 -90 -96 -94
-49 -68 20 5 -54 -93 -98 -98
-49 -71 20 5 -52 -94 -99 -94
-49 -68 20 5 -49 -93 -98 -88
-49 -64 20 5 -48 -90 -97 -86
-49 -63 20 5 -49 -88 -98 -88
-51 -67 20 5 -53 -88 -100 -89
-54 -73 20 5 -59 -88 -102 -88
-55 -79 20 5 -65 -88 -102 -87
-54 -83 20 5 -68 -88 -102 -88
-54 -84 20 6 -68 -88 -102 -89
-59 -83 20 5 -68 -88 -102 -88
-68 -83 20 3 -68 -88 -100 -87
-73 -83 20 0 -68 -88 -98 -88
-70 -85 21 -1 -66 -90 -97 -90
-63 -88 20 -0 -63 -93 -98 -93
-59 -90 17 0 -62 -94 -100 -94
-59 -88 15 -0 -63 -93 -102 -93
-57 -81 14 -0 -64 -90 -102 -90
-54 -73 15 0 -63 -88 -102 -88
-52 -70 15 0 -61 -87 -102 -87
-54 -73 15 -0 -59 -88 -102 -88
-57 -80 15 -1 -58 -88 -101 -88
-59 -88 15 0 -59 -88 -98 -88
-59 -95 15 1 -61 -87 -95 -88
-59 -98 15 -0 -63 -88 -93 -88
-59 -94 15 -3 -62 -89 -93 -88
-59 -88 15 -5 -59 -88 -93 -88
-59 -84 15 -5 -56 -87 -93 -87
-59 -83 15 -5 -54 -88 -93 -88
-59 -82 17 -5 -54 -89 -93 -91
-59 -78 20 -5 -54 -88 -93 -93
-59 -74 23 -3 -54 -85 -92 -93
-59 -73 24 -0 -54 -88 -93 -93
-61 -73 24 1 -56 -96 -95 -95
-63 -73 24 0 -59 -102 -98 -98
-64 -72 24 -0 -61 -99 -99 -101
-63 -73 24 -0 -63 -93 -98 -102
-63 -79 24 0 -65 -91 -98 -101
-63 -88 24 0 -68 -93 -98 -98
-63 -94 24 -0 -69 -92 -98 -95
-63 -93 24 -0 -68 -88 -98 -93
-63 -88 24 0 -65 -88 -98 -93
-63 -83 24 0 -63 -93 -98 -93
-64 -78 24 -0 -61 -98 -98 -93
-63 -73 24 0 -59 -98 -98 -93
-61 -70 25 0 -58 -94 -98 -94
-59 -73 24 -0 -59 -88 -98 -93
-59 -81 22 -0 -62 -83 -98 -91
-59 -88 20 -0 -63 -83 -98 -93
-59 -88 19 1 -63 -86 -98 -99
-59 -83 20 0 -63 -88 -98 -102
-59 -78 20 -2 -65 -88 -99 -99
-59 -78 20 -5 -68 -88 -98 -93
-61 -82 18 -6 -69 -90 -96 -91
-68 -88 15 -5 -68 -93 -93 -93
-77 -93 11 -4 -68 -94 -92 -94
-83 -93 10 -5 -68 -93 -93 -93
-81 -90 12 -6 -67 -92 -95 -94
-73 -88 15 -5 -68 -93 -98 -98
-66 -88 16 -2 -70 -94 -101 -102
-63 -88 15 -0 -73 -93 -102 -102
-62 -86 14 -0 -73 -92 -102 -100
-63 -83 15 0 -73 -93 -102 -98
-63 -83 18 3 -73 -96 -102 -97
-63 -83 20 5 -73 -98 -102 -98
-61 -81 20 3 -72 -98 -100 -98
-59 -78 20 0 -73 -98 -98 -98
-58 -77 20 -1 -76 -98 -97 -98
-59 -78 20 -0 -78 -98 -98 -98
-60 -79 20 0 -77 -98 -98 -98
-59 -78 20 0 -73 -98 -98 -98
-58 -77 20 -0 -69 -98 -98 -98
-59 -78 20 -0 -68 -98 -98 -98
-60 -81 20 -0 -68 -96 -98 -98
-59 -83 20 0 -68 -93 -98 -98
-56 -83 20 0 -68 -90 -98 -99
-54 -83 20 -0 -68 -88 -98 -102
-54 -83 20 -1 -69 -87 -98 -106
-54 -83 20 0 -68 -88 -98 -107
-54 -82 21 3 -65 -89 -98 -103
-54 -83 24 5 -63 -88 -98 -98
-55 -84 28 5 -63 -86 -96 -97
-54 -83 34 5 -63 -83 -93 -98
-51 -78 40 9 -63 -82 -92 -99
-49 -73 44 15 -63 -83 -93 -98
-51 -68 47 19 -61 -81 -91 -95
-54 -59 49 20 -54 -73 -83 -88
-55 -47 52 20 -45 -63 -73 -79
-54 -39 54 20 -39 -59 -68 -73
-54 -35 54 20 -38 -60 -69 -73
-54 -29 54 20 -34 -59 -68 -73
-52 -15 54 23 -22 -52 -61 -69
-44 -0 54 29 -10 -44 -54 -63
-32 5 55 38 -6 -42 -52 -61
-20 0 59 49 -10 -44 -54 -63
-14 -5 62 58 -12 -45 -55 -64
-15 -5 59 59 -10 -44 -54 -63
-22 -6 49 54 -8 -43 -53 -62
-29 -10 39 49 -10 -44 -54 -63
-33 -12 30 45 -16 -44 -54 -63
-34 -5 15 34 -20 -44 -54 -59
-32 9 -9 13 -21 -44 -54 -53
-29 20 -29 -5 -20 -44 -54 -49
-24 23 -34 -10 -20 -42 -52 -48
-20 20 -29 -5 -20 -39 -49 -49
-17 18 -25 -1 -20 -37 -48 -50
-15 15 -24 0 -20 -39 -49 -49
-13 10 -21 0 -21 -42 -50 -48
-10 5 -15 -0 -24 -44 -49 -49
-7 4 -13 -4 -27 -44 -45 -50
-5 5 -15 -10 -29 -44 -44 -49
-4 4 -17 -12 -29 -44 -46 -48
0 0 -15 -10 -29 -44 -49 -49
6 -3 -11 -5 -30 -46 -50 -54
10 -5 -5 0 -34 -49 -49 -59
11 -9 -1 6 -40 -54 -50 -62
10 -20 -0 10 -44 -59 -54 -63
9 -32 -1 11 -45 -61 -57 -63
5 -39 0 10 -44 -59 -59 -63
-5 -40 3 10 -45 -58 -62 -64
-15 -44 5 10 -49 -63 -68 -68
-20 -56 4 9 -56 -74 -77 -76
-20 -68 5 5 -63 -83 -83 -83
-22 -71 12 -0 -65 -85 -84 -84
-29 -68 20 -5 -63 -83 -83 -83
-39 -68 24 -8 -60 -83 -85 -85
-49 -78 24 -10 -63 -88 -93 -93
-56 -89 24 -13 -71 -94 -102 -102
-59 -93 24 -15 -78 -98 -107 -107
-59 -90 24 -16 -79 -100 -108 -108
-59 -88 24 -15 -78 -102 -107 -107
-60 -91 26 -14 -79 -104 -108 -108
-59 -93 29 -15 -83 -107 -112 -112
-57 -92 30 -18 -87 -110 -115 -115
-59 -93 29 -20 -88 -112 -117 -117
-66 -100 28 -21 -88 -113 -117 -117
-73 -107 29 -20 -88 -112 -117 -117
-72 -107 32 -19 -88 -111 -117 -117
-63 -102 34 -20 -88 -112 -117 -117
-57 -102 34 -21 -88 -115 -117 -117
-63 -112 34 -20 -88 -117 -117 -117
-75 -122 34 -19 -88 -116 -118 -118
-78 -122 34 -20 -88 -112 -117 -117
-69 -110 34 -21 -88 -106 -114 -114
-59 -98 34 -20 -88 -102 -112 -112
-58 -95 34 -16 -88 -101 -112 -112
-59 -98 34 -15 -88 -102 -112 -112
-54 -100 34 -16 -88 -103 -112 -112
-49 -98 34 -15 -88 -102 -112 -112
-54 -99 35 -9 -88 -102 -114 -116
-68 -107 34 -5 -88 -102 -117 -122
-82 -118 33 -8 -89 -103 -121 -129
-88 -122 34 -15 -88 -102 -122 -132
-89 -119 39 -12 -85 -102 -123 -134
-88 -112 44 -0 -78 -102 -122 -132
-84 -109 51 19 -70 -105 -122 -132
-78 -107 59 39 -63 -102 -122 -132
-76 -112 78 66 -53 -97 -127 -141
-83 -127 107 102 -34 -93 -137 -156
-93 -153 144 153 1 -92 -148 -174
-98 -176 176 205 49 -88 -151 -185
-97 -187 196 240 97 -74 -143 -184
-98 -181 200 234 137 -49 -127 -171
-102 -157 190 192 183 -9 -95 -142
-98 -112 161 122 244 49 -39 -93
-70 -50 107 24 303 127 45 -17
-20 15 24 -122 322 215 146 83
41 82 -85 -322 298 310 257 204
102 166 -210 -551 264 415 386 342
167 277 -337 -761 260 544 548 505
239 400 -454 -932 278 698 737 693
306 522 -561 -1092 277 855 924 888
351 649 -664 -1275 239 992 1084 1065
379 789 -771 -1471 200 1120 1237 1227
400 927 -878 -1646 195 1265 1411 1392
396 1045 -974 -1804 192 1391 1571 1540
332 1123 -1045 -1973 127 1421 1631 1611
221 1129 -1079 -2122 0 1326 1551 1565
117 1031 -1075 -2163 -137 1133 1358 1411
43 840 -1038 -2081 -298 827 1063 1156
-39 625 -982 -1973 -561 361 639 791
-150 450 -917 -1907 -900 -188 141 361
-239 312 -849 -1826 -1143 -595 -264 -15
-252 188 -778 -1654 -1174 -720 -452 -241
-215 78 -698 -1426 -1079 -664 -478 -337
-188 2 -609 -1227 -998 -610 -477 -387
-185 -44 -512 -1070 -932 -595 -488 -425
-174 -81 -419 -903 -806 -542 -466 -429
-146 -112 -337 -717 -625 -434 -395 -390
-119 -124 -269 -554 -473 -336 -321 -337
-102 -112 -210 -434 -376 -278 -273 -293
-88 -91 -158 -334 -295 -234 -238 -261
-73 -73 -117 -239 -210 -185 -200 -229
-64 -61 -85 -157 -144 -147 -167 -199
-59 -54 -59 -102 -107 -122 -142 -171
-53 -52 -34 -63 -81 -103 -124 -148
-44 -49 -15 -29 -54 -83 -107 -127
-38 -48 -4 7 -34 -74 -97 -115
-34 -49 0 34 -24 -73 -93 -112
-33 -57 6 50 -22 -75 -96 -117
-34 -68 10 54 -24 -73 -98 -117
-37 -79 13 61 -24 -70 -97 -111
-39 -88 15 68 -20 -68 -93 -102
-39 -95 20 77 -13 -67 -90 -98
-39 -98 24 83 -10 -68 -88 -98
-40 -95 28 93 -9 -66 -83 -98
-39 -88 34 102 -5 -63 -78 -98
-34 -81 43 110 6 -59 -73 -97
-29 -78 49 117 15 -54 -68 -93
-27 -77 50 126 19 -48 -60 -85
-29 -78 49 132 20 -44 -54 -78
-31 -78 51 133 23 -41 -52 -76
-29 -78 54 132 29 -39 -54 -78
-25 -78 55 135 33 -37 -56 -78
-20 -78 54 142 34 -34 -54 -73
-17 -78 54 149 33 -32 -50 -67
-15 -78 54 151 34 -29 -44 -63
-14 -78 54 151 36 -26 -39 -61
-15 -78 54 151 39 -24 -34 -59
-16 -79 56 154 40 -22 -31 -58
-15 -78 59 156 39 -20 -29 -59
-14 -77 60 155 37 -17 -28 -60
-15 -78 59 151 39 -15 -29 -59
-19 -81 59 148 46 -16 -30 -55
-20 -83 59 151 54 -15 -29 -49
-17 -83 58 157 58 -11 -27 -44
-15 -83 59 161 59 -5 -24 -44
-16 -84 60 161 60 -1 -22 -45
-15 -83 59 161 63 0 -20 -44
-9 -77 55 161 67 2 -18 -38
-0 -68 54 161 73 5 -15 -29
5 -63 55 159 79 10 -12 -23
5 -63 54 161 83 15 -10 -20
5 -65 48 168 83 20 -8 -20
5 -63 44 176 83 24 -5 -20
5 -60 48 180 84 26 -2 -21
5 -59 54 181 88 29 -0 -20
9 -59 56 184 94 36 4 -17
15 -54 54 190 102 44 10 -10
18 -45 52 196 111 49 17 -3
15 -44 49 200 117 49 20 0
10 -53 47 204 117 47 19 -0
10 -59 49 210 117 49 20 -0
13 -54 56 215 122 56 26 4
15 -44 59 220 132 63 34 10
14 -42 53 222 140 67 40 15
15 -44 44 224 142 68 44 15
23 -42 41 227 142 69 46 15
34 -34 44 234 146 73 49 20
38 -30 48 246 153 78 53 30
34 -34 49 259 161 83 59 39
31 -37 49 266 166 90 68 44
34 -34 49 268 171 98 78 49
42 -26 49 270 177 106 85 58
49 -20 49 278 185 112 88 68
52 -19 50 290 193 116 90 73
54 -20 49 298 200 122 93 73
60 -17 46 300 205 130 98 74
68 -10 44 303 210 142 107 83
75 -2 44 313 217 153 117 97
78 5 44 327 229 161 127 107
81 10 44 339 241 164 133 110
88 15 44 346 249 166 137 112
95 20 45 352 251 171 142 117
98 24 44 361 254 181 151 127
97 26 39 371 262 193 163 137
102 29 34 381 273 205 176 146
115 35 31 390 279 215 186 156
127 44 29 400 283 224 195 166
132 54 27 411 289 233 204 175
132 59 24 420 298 244 215 181
133 61 22 423 307 255 225 187
137 63 20 420 312 264 234 195
141 68 16 416 316 272 243 206
146 73 10 420 322 283 254 220
154 75 5 430 330 295 265 233
161 78 -0 439 337 303 273 244
162 86 -5 440 340 305 279 250
161 98 -10 439 342 307 288 254
165 110 -13 441 347 315 300 259
176 122 -15 444 351 327 312 268
185 133 -19 441 350 336 319 281
185 142 -24 429 342 337 322 293
182 146 -27 412 334 335 326 300
185 146 -29 400 332 337 332 303
195 147 -31 395 337 343 338 305
200 151 -34 395 342 346 342 307
197 158 -39 395 344 345 345 310
195 166 -44 390 342 346 346 312
197 171 -50 378 338 350 346 313
195 171 -54 361 332 351 346 312
186 170 -55 343 324 345 346 308
181 171 -54 332 317 337 342 303
183 173 -53 326 313 332 331 301
181 171 -54 317 307 327 317 298
166 162 -56 301 295 316 306 291
151 151 -54 283 278 298 298 278
149 145 -47 267 262 281 286 261
151 146 -39 254 249 268 268 244
143 146 -35 239 236 256 247 229
127 137 -34 224 220 239 229 215
116 116 -33 211 204 219 214 201
107 93 -29 200 190 200 200 185
94 76 -25 186 180 185 186 168
78 68 -24 171 171 171 171 151
67 62 -23 157 159 155 155 134
59 54 -20 146 142 137 137 117
50 46 -15 134 126 120 118 102
44 44 -10 122 117 107 102 93
42 46 -6 111 112 95 90 87
39 44 0 102 102 83 78 78
30 31 8 93 84 71 63 63
20 15 15 83 68 59 49 44
18 3 19 72 59 47 39 27
20 -5 20 63 54 34 29 15
17 -12 21 57 44 20 17 7
5 -20 20 54 34 10 5 0
-12 -29 16 51 28 3 -3 -7
-29 -39 10 44 24 -5 -10 -15
-46 -52 8 34 16 -15 -21 -25
-59 -63 10 24 5 -24 -34 -34
-61 -64 15 19 -3 -28 -41 -41
-49 -54 20 20 -5 -29 -39 -44
-27 -41 25 22 -6 -31 -36 -44
-10 -34 29 20 -10 -34 -39 -44
-9 -38 30 15 -16 -39 -47 -47
-24 -49 29 10 -20 -44 -54 -54
-43 -59 28 9 -22 -50 -56 -62
-54 -63 29 10 -24 -54 -54 -68
-51 -64 30 11 -28 -54 -53 -69
-39 -63 29 10 -34 -54 -54 -68
-28 -63 26 9 -39 -56 -57 -67
-24 -63 24 10 -39 -59 -59 -68
-27 -63 23 11 -38 -60 -61 -71
-34 -63 24 10 -39 -59 -63 -73
-40 -63 24 8 -44 -58 -64 -74
-44 -63 24 5 -49 -59 -63 -73
-45 -63 24 3 -50 -60 -61 -72
-44 -63 24 -0 -49 -59 -59 -73
-43 -62 24 -3 -49 -58 -58 -76
-44 -63 24 -5 -49 -59 -59 -78
-47 -65 24 -6 -48 -61 -61 -79
-49 -68 24 -5 -44 -63 -63 -78
-50 -69 24 -5 -40 -63 -63 -78
-49 -68 24 -5 -39 -63 -63 -78
-48 -68 24 -5 -41 -63 -63 -78
-49 -68 24 -5 -44 -63 -63 -78
-50 -68 24 -3 -45 -63 -63 -78
-49 -68 24 0 -44 -63 -63 -78
-48 -69 23 3 -43 -63 -63 -78
-49 -73 24 5 -44 -63 -63 -78
-50 -75 26 5 -47 -63 -62 -78
-49 -73 29 5 -49 -63 -63 -78
-47 -69 30 5 -50 -63 -65 -78
-49 -68 29 5 -49 -63 -68 -78
-52 -70 29 4 -47 -61 -69 -78
-49 -68 29 5 -44 -59 -68 -78
-44 -64 27 8 -41 -58 -67 -76
-49 -68 20 10 -39 -59 -68 -73
-68 -84 10 10 -38 -60 -69 -72
-83 -98 5 10 -39 -59 -68 -73
-77 -95 7 11 -39 -56 -65 -74
-54 -78 15 15 -39 -54 -63 -73
-33 -61 21 19 -39 -53 -63 -71
-24 -54 24 20 -39 -54 -63 -68
-24 -54 24 20 -38 -55 -59 -65
-29 -54 24 20 -34 -54 -54 -59
-35 -53 24 21 -28 -51 -50 -52
-39 -54 24 20 -24 -49 -49 -49
-40 -55 24 17 -24 -48 -49 -52
-39 -54 24 15 -24 -49 -49 -59
-39 -49 24 15 -22 -50 -50 -63
-39 -44 24 15 -20 -49 -49 -63
-35 -42 24 15 -21 -47 -46 -61
-29 -44 24 15 -24 -44 -44 -59
-27 -47 24 16 -27 -43 -43 -59
-29 -49 24 15 -29 -44 -44 -59
-33 -49 25 12 -29 -47 -44 -59
-34 -49 24 10 -29 -49 -44 -59
-33 -49 22 10 -29 -49 -44 -59
-34 -49 20 10 -29 -49 -44 -59
-38 -49 20 10 -29 -49 -44 -59
-44 -49 20 10 -29 -49 -44 -59
-47 -48 20 11 -28 -49 -46 -59
-44 -49 20 10 -29 -49 -49 -59
-38 -52 20 6 -32 -49 -51 -59
-34 -54 20 0 -34 -49 -54 -59
-33 -53 20 -3 -34 -48 -57 -59
-34 -49 20 -5 -34 -49 -59 -59
-35 -47 20 -6 -38 -54 -59 -58
-34 -49 20 -5 -44 -59 -59 -59
-33 -54 20 -2 -48 -62 -59 -61
-34 -59 20 -0 -49 -63 -59 -63
-36 -61 21 0 -49 -63 -59 -63
-39 -59 20 0 -49 -63 -59 -63
-40 -56 18 1 -49 -62 -60 -63
-39 -54 15 -0 -49 -63 -63 -63
-38 -54 14 -3 -50 -66 -66 -62
-39 -54 15 -5 -54 -68 -68 -63
-42 -54 15 -4 -59 -68 -71 -66
-44 -54 15 -5 -63 -68 -73 -68
-43 -56 15 -8 -63 -70 -74 -68
-39 -59 15 -10 -63 -73 -73 -68
-37 -62 15 -7 -65 -73 -72 -72
-44 -63 15 -5 -68 -73 -73 -78
-54 -63 15 -8 -71 -75 -76 -82
-54 -63 15 -15 -73 -78 -78 -83
-42 -63 15 -18 -75 -79 -79 -85
-29 -63 15 -15 -78 -78 -78 -88
-26 -61 13 -11 -79 -78 -78 -89
-29 -59 10 -10 -78 -78 -78 -88
-32 -58 6 -10 -76 -78 -78 -87
-34 -59 5 -10 -78 -78 -78 -88
-40 -60 7 -10 -83 -80 -78 -91
-44 -59 10 -10 -88 -83 -78 -93
-41 -56 11 -10 -89 -84 -78 -92
-34 -54 10 -10 -88 -83 -78 -88
-31 -56 10 -10 -87 -82 -80 -85
-34 -59 10 -10 -88 -83 -83 -83
-40 -60 10 -11 -89 -86 -86 -83
-44 -59 10 -10 -88 -88 -88 -83
-45 -59 10 -9 -87 -88 -88 -85
-44 -63 10 -10 -88 -88 -88 -88
-41 -68 10 -15 -91 -88 -88 -90
-39 -68 10 -20 -93 -88 -88 -88
-40 -63 10 -22 -93 -88 -88 -86
-44 -59 10 -20 -93 -88 -88 -88
-47 -62 10 -17 -94 -90 -88 -94
-49 -68 10 -15 -93 -93 -88 -98
-49 -70 10 -15 -90 -96 -88 -94
-49 -68 10 -15 -88 -98 -88 -88
-49 -64 10 -15 -88 -98 -87 -86
-49 -63 10 -15 -88 -98 -88 -88
-49 -63 10 -15 -85 -98 -91 -89
-49 -63 10 -15 -78 -98 -93 -88
-47 -63 10 -15 -71 -98 -93 -87
-44 -63 10 -15 -68 -98 -93 -88
-41 -63 10 -14 -67 -98 -93 -89
-44 -63 10 -15 -68 -98 -93 -88
-50 -63 9 -17 -68 -98 -91 -87
-54 -63 10 -20 -68 -98 -88 -88
-51 -65 12 -21 -67 -100 -86 -90
-44 -68 15 -20 -68 -102 -88 -93
-40 -70 16 -20 -70 -103 -91 -94
-39 -68 15 -20 -73 -102 -93 -93
-37 -63 15 -20 -74 -100 -93 -90
-34 -59 15 -20 -73 -98 -93 -88
-32 -59 15 -20 -71 -97 -93 -87
-34 -63 15 -20 -68 -98 -93 -88
-37 -66 15 -20 -67 -98 -93 -90
-39 -68 15 -20 -68 -98 -93 -93
-39 -68 15 -19 -71 -97 -93 -96
-39 -68 15 -20 -73 -98 -93 -98
-42 -67 15 -22 -72 -99 -93 -99
-49 -68 15 -24 -68 -98 -93 -98
-56 -71 15 -24 -64 -97 -93 -97
-59 -73 15 -24 -63 -98 -93 -98
-56 -72 15 -23 -63 -99 -93 -100
-49 -68 15 -20 -63 -98 -93 -102
-42 -64 15 -15 -63 -95 -93 -102
-39 -63 15 -10 -63 -98 -93 -102
-41 -63 15 -9 -63 -106 -94 -102
-44 -63 15 -10 -63 -112 -93 -102
-45 -62 15 -11 -63 -109 -90 -102
-44 -63 15 -10 -63 -102 -88 -102
-43 -68 15 -10 -63 -100 -89 -101
-44 -73 15 -10 -63 -102 -93 -98
-44 -75 15 -10 -61 -101 -96 -95
-44 -73 15 -10 -59 -98 -98 -93
-44 -72 15 -10 -58 -97 -98 -93
-44 -73 15 -10 -59 -98 -98 -93
-45 -75 15 -10 -60 -99 -98 -93
-44 -73 15 -10 -59 -98 -98 -93
-43 -70 16 -12 -59 -97 -98 -94
-44 -73 15 -15 -63 -98 -98 -93
-47 -81 12 -18 -69 -100 -98 -91
-49 -88 10 -20 -73 -102 -98 -93
-49 -86 9 -20 -73 -103 -98 -99
-49 -78 10 -20 -73 -102 -98 -102
-50 -70 10 -22 -75 -99 -99 -99
-49 -68 10 -24 -78 -98 -98 -93
-45 -68 10 -24 -77 -100 -96 -91
-39 -68 10 -24 -73 -102 -93 -93
-35 -66 10 -24 -69 -103 -92 -93
-34 -63 10 -24 -68 -102 -93 -93
-34 -62 12 -24 -68 -101 -95 -94
-34 -63 15 -24 -68 -102 -98 -98
-34 -66 16 -24 -70 -102 -101 -101
-34 -68 15 -24 -73 -102 -102 -102
-33 -68 14 -22 -74 -102 -102 -102
-34 -68 15 -20 -73 -102 -102 -102
-36 -68 16 -20 -70 -102 -102 -100
-39 -68 15 -20 -68 -102 -102 -98
-40 -68 14 -18 -68 -101 -100 -97
-39 -68 15 -15 -68 -102 -98 -98
-39 -68 18 -12 -68 -104 -97 -98
-39 -68 20 -10 -68 -107 -98 -98
-39 -68 21 -10 -68 -108 -98 -98
-39 -68 20 -10 -68 -107 -98 -98
-39 -68 20 -10 -68 -107 -98 -98
-39 -68 20 -10 -68 -107 -98 -98
-39 -68 20 -10 -68 -107 -98 -97
-39 -68 20 -10 -68 -107 -98 -98
-39 -68 20 -10 -68 -107 -98 -99
-39 -68 20 -10 -68 -107 -98 -98
-40 -68 20 -9 -69 -107 -98 -96
-39 -68 20 -10 -73 -107 -98 -98
-37 -66 20 -11 -77 -107 -98 -104
-34 -63 20 -10 -78 -107 -98 -107
-33 -62 20 -7 -75 -107 -99 -104
-34 -63 20 -5 -73 -107 -98 -98
-35 -65 20 -5 -73 -105 -96 -96
-34 -63 20 -5 -73 -102 -93 -98
-33 -59 22 -1 -71 -101 -92 -99
-34 -54 24 5 -68 -102 -93 -98
-37 -49 26 9 -63 -100 -91 -95
-39 -39 29 10 -54 -93 -83 -88
-37 -27 34 10 -44 -83 -73 -79
-34 -20 39 10 -39 -78 -68 -73
-34 -19 42 9 -38 -79 -69 -73
-34 -15 44 10 -34 -78 -68 -73
-31 -3 44 14 -22 -71 -61 -69
-24 10 44 20 -10 -63 -54 -63
-17 14 45 25 -6 -61 -52 -61
-15 10 49 29 -10 -63 -54 -63
-17 5 52 31 -12 -63 -55 -64
-20 5 49 29 -10 -59 -54 -63
-20 6 41 27 -8 -55 -54 -62
-15 5 34 29 -10 -54 -54 -63
-9 6 29 32 -16 -54 -52 -63
-5 15 15 24 -20 -54 -49 -59
-3 29 -9 4 -21 -54 -46 -53
0 39 -29 -15 -20 -54 -44 -49
5 41 -34 -20 -20 -52 -42 -48
10 39 -29 -15 -20 -49 -39 -49
12 37 -27 -11 -20 -47 -38 -50
10 34 -29 -10 -20 -49 -39 -49
7 29 -28 -10 -21 -52 -40 -48
5 24 -24 -10 -24 -54 -39 -49
3 23 -22 -14 -27 -54 -37 -50
-0 24 -24 -20 -29 -54 -39 -49
-2 24 -28 -22 -29 -55 -46 -48
0 20 -29 -20 -29 -59 -54 -49
6 17 -28 -17 -30 -63 -58 -54
10 15 -24 -15 -34 -68 -59 -59
10 11 -21 -13 -40 -73 -60 -62
10 -0 -20 -10 -44 -78 -63 -63
11 -13 -21 -9 -45 -80 -64 -63
10 -20 -20 -10 -44 -78 -63 -63
5 -20 -15 -11 -45 -77 -63 -64
0 -24 -10 -10 -49 -83 -68 -68
-1 -36 -8 -9 -56 -93 -76 -76
-0 -49 -5 -10 -63 -102 -83 -83
-3 -53 2 -13 -65 -104 -84 -84
-10 -49 10 -15 -63 -102 -83 -83
-20 -50 14 -16 -60 -102 -85 -85
-29 -59 15 -15 -63 -107 -93 -93
-36 -70 15 -14 -71 -113 -102 -102
-39 -73 15 -15 -78 -117 -107 -107
-39 -71 15 -15 -79 -120 -108 -108
-39 -73 15 -15 -78 -122 -107 -107
-40 -79 17 -14 -79 -124 -108 -108
-39 -83 20 -15 -83 -127 -112 -112
-37 -82 21 -17 -87 -130 -115 -115
-39 -83 20 -20 -88 -132 -117 -117
-50 -92 17 -22 -88 -133 -119 -117
-63 -102 15 -24 -88 -132 -122 -117
-68 -102 15 -27 -88 -131 -126 -117
-63 -93 15 -29 -88 -132 -127 -117
-58 -87 15 -30 -86 -134 -126 -116
-63 -93 15 -29 -83 -137 -127 -117
-75 -106 15 -29 -80 -138 -130 -119
-78 -112 15 -29 -78 -137 -132 -122
-68 -107 15 -29 -78 -134 -131 -123
-59 -98 15 -24 -78 -132 -127 -122
-61 -95 15 -18 -78 -132 -124 -122
-68 -98 15 -15 -78 -132 -122 -122
-69 -100 15 -16 -78 -132 -122 -122
-63 -98 15 -15 -78 -132 -122 -122
-59 -97 16 -9 -78 -132 -123 -122
-59 -98 15 -5 -78 -132 -122 -122
-59 -101 14 -6 -78 -133 -122 -124
-59 -102 15 -10 -78 -132 -122 -127
-63 -102 18 -9 -75 -132 -124 -132
-68 -102 20 -5 -68 -132 -122 -132
-70 -105 25 10 -57 -134 -121 -131
-68 -107 39 39 -44 -132 -122 -132
-67 -114 66 82 -28 -130 -131 -144
-73 -127 98 122 -5 -127 -142 -161
-82 -148 130 158 31 -123 -149 -175
-88 -166 156 195 78 -112 -146 -181
-92 -175 179 232 127 -95 -140 -182
-98 -171 190 239 166 -73 -132 -176
-103 -150 181 198 208 -37 -106 -148
-93 -107 142 112 259 24 -44 -88
-61 -49 78 -1 308 107 49 0
-10 10 -5 -146 322 195 151 102
52 77 -104 -337 301 283 258 217
122 176 -220 -566 278 386 390 356
201 308 -346 -784 285 522 564 527
278 439 -464 -952 307 678 756 712
332 552 -568 -1096 302 825 926 887
356 669 -669 -1275 259 952 1070 1050
370 815 -779 -1488 224 1095 1231 1226
390 966 -888 -1680 229 1265 1426 1416
390 1077 -979 -1828 222 1385 1578 1558
327 1123 -1040 -1973 127 1353 1582 1577
213 1098 -1071 -2113 -38 1181 1440 1477
112 1001 -1075 -2168 -181 972 1245 1323
47 838 -1048 -2097 -303 738 1015 1124
-29 644 -992 -1977 -512 371 664 815
-143 462 -918 -1892 -833 -133 183 392
-239 307 -844 -1807 -1104 -571 -259 -15
-255 182 -774 -1649 -1169 -750 -485 -263
-215 88 -698 -1431 -1075 -717 -512 -351
-186 21 -609 -1227 -963 -655 -490 -382
-185 -34 -512 -1060 -874 -630 -493 -420
-176 -82 -421 -896 -753 -583 -483 -444
-142 -107 -342 -722 -590 -483 -425 -420
-106 -99 -273 -565 -441 -378 -347 -364
-83 -73 -210 -439 -332 -303 -283 -307
-71 -56 -156 -331 -244 -252 -238 -266
-63 -54 -117 -234 -171 -210 -200 -234
-61 -56 -90 -155 -125 -182 -169 -205
-59 -54 -68 -102 -98 -161 -146 -176
-53 -52 -44 -63 -71 -139 -132 -153
-44 -49 -24 -29 -39 -117 -122 -137
-37 -48 -10 7 -16 -108 -117 -130
-34 -49 0 34 -5 -107 -112 -127
-33 -56 10 49 1 -106 -110 -129
-34 -63 15 54 5 -102 -107 -127
-35 -68 16 61 7 -99 -105 -121
-34 -68 15 68 10 -98 -102 -112
-31 -68 19 76 14 -98 -100 -107
-29 -68 24 83 15 -98 -98 -107
-29 -68 27 93 14 -96 -95 -107
-29 -68 29 102 15 -93 -93 -107
-25 -68 34 108 24 -90 -92 -106
-20 -68 39 112 34 -88 -88 -102
-18 -68 40 118 41 -85 -80 -94
-20 -68 39 122 44 -83 -73 -88
-21 -68 41 123 49 -80 -71 -86
-20 -68 44 122 54 -78 -73 -88
-17 -68 45 125 56 -75 -74 -87
-15 -68 44 132 54 -73 -73 -83
-15 -68 44 139 53 -71 -70 -77
-15 -68 44 142 54 -68 -68 -73
-15 -68 44 142 56 -65 -65 -70
-15 -68 44 142 59 -63 -63 -68
-16 -69 46 144 60 -61 -61 -67
-15 -68 49 146 59 -59 -59 -68
-12 -65 50 147 57 -56 -57 -69
-10 -63 49 146 59 -54 -54 -68
-9 -61 49 147 66 -53 -51 -64
-5 -59 49 151 73 -49 -49 -59
1 -56 48 157 77 -41 -47 -55
5 -54 49 161 78 -34 -44 -54
5 -55 50 161 80 -30 -41 -55
5 -54 49 161 83 -29 -39 -54
10 -49 45 161 88 -27 -37 -48
15 -44 44 161 93 -24 -34 -39
16 -45 45 159 98 -22 -31 -32
15 -54 44 161 102 -20 -29 -29
14 -63 38 168 102 -17 -27 -29
15 -63 34 176 102 -15 -24 -29
15 -56 38 180 103 -13 -22 -29
15 -49 44 181 107 -10 -20 -29
19 -43 46 182 113 -3 -16 -26
24 -34 44 185 122 5 -10 -20
25 -25 42 187 131 10 -3 -14
20 -24 39 190 137 10 -0 -10
14 -33 37 194 138 8 -1 -10
15 -39 39 200 137 10 0 -10
21 -34 46 205 140 16 6 -6
24 -24 49 210 146 24 15 0
23 -21 43 213 152 30 21 5
24 -24 34 215 156 34 24 5
33 -22 31 217 160 38 26 5
44 -15 34 224 166 44 29 10
48 -12 38 235 174 49 33 20
44 -15 39 249 181 54 39 29
43 -19 39 259 185 58 49 34
49 -15 39 264 190 63 59 39
58 -6 39 269 196 68 66 48
63 0 39 278 205 73 68 59
62 -1 40 290 213 77 69 64
63 -5 39 298 220 83 73 63
69 -6 36 300 225 91 80 64
78 -0 34 303 229 102 88 73
85 8 34 313 234 113 96 87
88 15 34 327 244 122 102 98
91 19 34 339 256 127 106 103
98 24 34 346 264 132 112 107
105 29 35 352 268 140 121 115
107 34 34 361 273 151 132 127
107 37 29 371 284 164 144 137
112 39 24 381 298 176 156 146
125 45 21 392 307 186 167 155
137 54 20 405 312 195 176 166
142 63 18 418 318 204 185 175
142 68 15 429 327 215 195 181
145 69 12 432 334 225 207 187
151 73 10 429 337 234 220 195
158 82 7 425 338 243 232 206
166 93 5 429 342 254 244 220
175 103 3 439 350 265 255 233
181 112 -0 449 356 273 264 244
182 120 -5 451 359 276 270 251
181 127 -10 449 361 278 278 254
183 134 -13 448 366 284 289 256
190 142 -15 449 371 293 298 259
196 152 -19 448 373 301 302 265
195 161 -24 444 371 303 303 273
192 165 -29 437 370 303 306 283
195 166 -34 429 371 307 312 293
203 167 -39 422 372 313 318 301
205 171 -44 415 371 317 322 307
199 178 -49 408 366 317 326 310
195 185 -54 400 361 317 327 312
197 188 -59 388 355 319 327 313
195 185 -63 371 346 317 327 312
186 181 -64 354 336 310 327 308
181 181 -63 342 327 303 322 303
184 184 -62 335 320 300 310 298
181 181 -63 327 312 298 298 293
164 168 -64 313 299 289 291 285
146 151 -59 298 283 273 288 273
141 139 -49 285 270 257 281 259
142 137 -39 273 259 244 264 244
133 136 -34 259 246 229 242 229
117 127 -34 244 229 210 220 215
106 111 -33 231 212 189 201 201
98 98 -29 220 200 171 185 185
86 95 -25 207 192 158 170 168
73 98 -24 195 185 146 156 151
65 94 -23 185 171 131 143 134
59 78 -20 176 151 112 127 117
51 61 -14 164 131 93 109 103
44 54 -10 151 122 78 93 93
42 56 -8 140 119 66 81 85
39 54 -5 132 112 54 68 73
30 41 -0 123 95 41 53 55
20 24 5 112 78 29 39 34
18 13 8 101 69 17 29 17
20 10 10 93 63 5 20 5
16 8 12 87 54 -7 7 -3
5 5 15 83 44 -15 -5 -10
-5 3 17 79 38 -19 -13 -16
-10 -0 20 73 34 -24 -20 -24
-13 -6 25 62 26 -34 -31 -34
-20 -15 29 49 15 -44 -44 -44
-30 -21 30 41 7 -49 -51 -51
-34 -24 29 39 5 -49 -49 -54
-29 -26 28 40 4 -51 -46 -54
-20 -29 29 39 0 -54 -49 -54
-15 -34 30 34 -5 -58 -57 -55
-20 -39 29 29 -10 -63 -63 -59
-30 -43 28 27 -13 -69 -65 -64
-39 -44 29 29 -15 -73 -63 -68
-43 -44 30 30 -17 -73 -62 -69
-44 -44 29 29 -20 -73 -63 -68
-44 -46 26 26 -21 -77 -67 -69
-44 -49 24 24 -20 -83 -73 -73
-44 -52 24 22 -19 -87 -79 -79
-44 -54 24 20 -20 -88 -83 -83
-44 -54 23 15 -25 -88 -84 -84
-44 -54 20 10 -29 -88 -83 -83
-44 -54 17 6 -30 -89 -80 -82
-44 -54 15 5 -29 -88 -78 -83
-45 -53 15 5 -28 -87 -77 -86
-49 -54 15 5 -29 -88 -78 -88
-55 -57 15 5 -30 -91 -81 -89
-59 -59 15 5 -29 -93 -83 -88
-60 -58 15 7 -28 -94 -83 -88
-59 -54 15 10 -29 -93 -83 -88
-59 -50 15 13 -32 -93 -83 -88
-59 -49 15 15 -34 -93 -83 -88
-55 -49 15 17 -33 -93 -83 -86
-44 -49 15 20 -29 -93 -83 -83
-33 -51 14 23 -25 -93 -83 -80
-29 -54 15 24 -24 -93 -83 -78
-33 -56 17 24 -26 -93 -83 -78
-39 -54 20 24 -29 -93 -83 -78
-44 -50 21 24 -30 -94 -83 -78
-49 -49 20 24 -29 -93 -83 -78
-53 -51 21 23 -27 -89 -81 -78
-49 -49 24 24 -24 -83 -78 -78
-37 -40 28 26 -22 -79 -77 -76
-29 -34 29 29 -20 -78 -78 -73
-32 -37 27 30 -19 -79 -79 -72
-39 -44 24 29 -20 -78 -78 -73
-39 -45 23 29 -20 -75 -75 -74
-34 -39 24 29 -20 -73 -73 -73
-33 -34 24 29 -19 -72 -73 -70
-34 -34 24 29 -20 -73 -73 -68
-33 -35 24 29 -21 -74 -71 -68
-29 -34 24 29 -20 -73 -68 -68
-28 -33 24 29 -17 -72 -67 -68
-29 -34 24 29 -15 -73 -68 -68
-29 -35 24 28 -15 -75 -68 -68
-29 -34 24 29 -15 -78 -68 -68
-29 -29 24 32 -13 -79 -68 -66
-29 -24 24 34 -10 -78 -68 -63
-25 -22 24 34 -9 -76 -66 -60
-20 -24 24 34 -10 -73 -63 -59
-18 -27 22 34 -10 -72 -62 -59
-20 -29 20 34 -10 -73 -63 -59
-23 -29 18 32 -10 -76 -63 -59
-24 -29 15 29 -10 -78 -63 -59
-25 -31 12 26 -12 -78 -63 -60
-29 -34 10 24 -15 -78 -63 -63
-36 -37 10 21 -19 -78 -62 -66
-44 -39 10 20 -20 -78 -63 -68
-47 -39 10 20 -20 -78 -65 -68
-44 -39 10 20 -20 -78 -68 -68
-38 -40 10 17 -22 -78 -69 -68
-34 -39 10 15 -24 -78 -68 -68
-33 -34 10 15 -22 -77 -68 -68
-34 -29 10 15 -20 -78 -68 -68
-34 -27 10 14 -21 -81 -68 -67
-34 -29 10 15 -24 -83 -68 -68
-34 -34 10 18 -27 -83 -68 -69
-34 -39 10 20 -29 -83 -68 -68
-35 -41 11 20 -29 -83 -68 -65
-34 -39 10 20 -29 -83 -68 -63
-32 -32 7 21 -26 -82 -70 -63
-29 -24 5 20 -20 -83 -73 -63
-28 -17 4 17 -15 -86 -76 -62
-29 -15 5 15 -15 -88 -78 -63
-31 -18 5 16 -20 -88 -81 -66
-34 -24 5 15 -24 -88 -83 -68
-35 -32 5 10 -25 -90 -84 -68
-34 -39 5 5 -24 -93 -83 -68
-36 -43 5 6 -26 -93 -82 -72
-44 -44 5 10 -29 -93 -83 -78
-54 -44 5 9 -30 -95 -86 -80
-54 -44 5 5 -29 -98 -88 -78
-42 -44 5 3 -28 -99 -89 -77
-29 -44 5 5 -29 -98 -88 -78
-26 -42 5 8 -30 -98 -88 -79
-29 -39 5 10 -29 -98 -88 -78
-32 -38 4 10 -28 -98 -88 -76
-34 -39 5 10 -29 -98 -88 -78
-40 -42 7 10 -34 -100 -88 -83
-44 -44 10 10 -39 -102 -88 -88
-41 -44 11 10 -41 -103 -88 -90
-34 -44 10 10 -39 -102 -88 -88
-31 -46 10 10 -38 -101 -88 -85
-34 -49 10 10 -39 -102 -88 -83
-40 -50 10 9 -42 -105 -90 -82
-44 -49 10 10 -44 -107 -93 -83
-45 -48 10 11 -44 -107 -96 -85
-44 -49 10 10 -44 -107 -98 -88
-43 -51 10 5 -44 -107 -98 -90
-44 -49 10 0 -44 -107 -98 -88
-47 -43 10 -2 -43 -107 -98 -86
-49 -39 10 -0 -44 -107 -98 -88
-49 -41 10 3 -46 -109 -98 -94
-49 -44 10 5 -49 -112 -98 -98
-49 -43 10 5 -50 -113 -98 -94
-49 -39 10 5 -49 -112 -98 -88
-47 -35 10 5 -49 -109 -97 -86
-44 -34 10 5 -49 -107 -98 -88
-43 -34 10 5 -49 -107 -100 -89
-44 -34 10 5 -49 -107 -102 -88
-45 -36 10 5 -49 -107 -102 -87
-44 -39 10 5 -49 -107 -102 -88
-42 -42 10 6 -49 -107 -102 -89
-44 -44 10 5 -49 -107 -102 -88
-50 -44 10 1 -47 -107 -100 -87
-54 -44 10 -5 -44 -107 -98 -88
-51 -45 11 -9 -40 -109 -97 -90
-44 -49 10 -10 -39 -112 -98 -93
-40 -53 8 -10 -41 -113 -100 -94
-39 -54 5 -10 -44 -112 -102 -93
-37 -49 4 -10 -45 -109 -102 -90
-34 -44 5 -10 -44 -107 -102 -88
-32 -42 7 -8 -43 -106 -101 -87
-34 -44 10 -5 -44 -107 -98 -88
-37 -45 13 -2 -46 -107 -95 -88
-39 -44 15 0 -49 -107 -93 -88
-39 -41 15 1 -52 -106 -93 -88
-39 -39 15 -0 -54 -107 -93 -88
-39 -38 15 -2 -54 -108 -93 -88
-39 -39 15 -5 -54 -107 -93 -88
-41 -42 15 -9 -54 -106 -95 -87
-44 -44 15 -15 -54 -107 -98 -88
-47 -45 15 -21 -54 -108 -101 -90
-49 -44 15 -24 -54 -107 -102 -93
-49 -44 15 -23 -54 -104 -102 -94
-49 -44 15 -20 -54 -107 -102 -93
-51 -44 15 -19 -54 -116 -102 -92
-54 -44 15 -20 -54 -122 -102 -93
-55 -44 15 -20 -54 -119 -100 -94
-54 -44 15 -20 -54 -112 -98 -93
-51 -44 15 -20 -54 -110 -97 -90
-49 -44 15 -20 -54 -112 -98 -88
-47 -44 15 -20 -54 -113 -98 -89
-44 -44 15 -20 -54 -112 -98 -93
-41 -44 15 -20 -54 -112 -98 -97
-39 -44 15 -20 -54 -112 -98 -98
-42 -42 15 -20 -52 -110 -98 -95
-49 -39 15 -20 -49 -107 -98 -93
-57 -39 16 -20 -48 -106 -98 -93
-59 -44 15 -20 -49 -107 -98 -93
-53 -53 13 -18 -50 -107 -98 -91
-39 -59 10 -15 -49 -107 -98 -93
-25 -57 9 -11 -46 -107 -98 -99
-20 -49 10 -10 -44 -107 -98 -102
-26 -42 10 -12 -46 -106 -98 -99
-39 -39 10 -15 -49 -107 -98 -93
-51 -39 10 -17 -50 -110 -96 -91
-54 -39 10 -15 -49 -112 -93 -93
-49 -39 12 -11 -50 -110 -92 -93
-39 -39 15 -5 -54 -107 -93 -93
-31 -39 18 -1 -58 -106 -96 -95
-29 -39 20 -0 -59 -107 -98 -98
-32 -39 19 -1 -57 -108 -98 -99
-39 -39 15 0 -54 -107 -98 -98
-45 -39 12 1 -51 -106 -98 -98
-49 -39 10 -0 -49 -107 -98 -98
-50 -39 10 -5 -49 -107 -98 -96
-49 -39 10 -10 -49 -107 -98 -93
-49 -39 10 -11 -49 -106 -98 -91
-49 -39 10 -10 -49 -107 -98 -88
-50 -40 10 -10 -50 -109 -98 -86
-49 -39 10 -10 -54 -112 -98 -88
-47 -36 10 -6 -58 -115 -98 -94
-44 -34 10 -0 -59 -117 -98 -98
-43 -36 12 5 -57 -118 -100 -94
-44 -44 15 5 -54 -117 -102 -88
-45 -52 18 4 -53 -115 -103 -86
-44 -54 20 5 -54 -112 -102 -88
-39 -50 22 10 -54 -111 -101 -89
-34 -44 24 15 -54 -112 -102 -88
-31 -38 26 19 -51 -110 -101 -85
-29 -29 29 20 -44 -102 -93 -78
-27 -16 34 20 -34 -91 -81 -69
-24 -5 39 20 -29 -83 -73 -63
-23 -0 42 19 -28 -81 -70 -63
-24 5 44 20 -24 -78 -68 -63
-23 17 44 24 -10 -71 -61 -59
-20 29 44 29 5 -63 -54 -54
-16 33 45 34 12 -61 -52 -52
-15 29 49 39 10 -63 -54 -54
-19 24 54 41 8 -64 -55 -55
-24 24 54 39 10 -63 -54 -54
-27 25 49 37 12 -62 -53 -53
-24 24 44 39 10 -63 -54 -54
-19 25 38 42 4 -63 -54 -53
-15 34 24 34 -0 -63 -54 -49
-13 48 0 14 -1 -63 -54 -43
-10 59 -20 -5 0 -63 -54 -39
-5 61 -26 -10 0 -61 -52 -36
0 59 -24 -5 0 -59 -49 -34
2 57 -25 -1 0 -58 -48 -31
-0 54 -29 0 -0 -59 -49 -29
-1 49 -29 2 -2 -61 -50 -28
0 44 -24 5 -5 -63 -49 -29
1 43 -22 4 -8 -63 -47 -29
-0 44 -24 0 -10 -63 -49 -29
-2 41 -26 -2 -10 -63 -54 -29
0 34 -24 -0 -10 -63 -59 -34
6 27 -20 3 -11 -65 -60 -42
10 24 -15 5 -15 -68 -59 -49
10 20 -11 8 -20 -73 -60 -53
10 10 -10 10 -24 -78 -63 -54
11 -3 -11 11 -25 -80 -64 -54
10 -10 -10 10 -24 -78 -63 -54
3 -9 -7 9 -25 -77 -63 -55
-5 -10 -5 10 -29 -83 -68 -59
-9 -18 -6 11 -36 -93 -77 -67
-10 -29 -5 10 -44 -102 -83 -73
-13 -32 2 8 -48 -104 -84 -74
-20 -29 10 5 -49 -102 -83 -73
-30 -30 15 4 -49 -102 -85 -75
-39 -39 15 5 -54 -107 -93 -83
-46 -50 15 6 -62 -113 -102 -92
-49 -54 15 5 -68 -117 -107 -98
-49 -53 15 4 -69 -120 -108 -99
-49 -54 15 5 -68 -122 -107 -98
-50 -59 17 6 -69 -124 -108 -99
-49 -63 20 5 -73 -127 -112 -102
-47 -62 21 2 -77 -130 -115 -105
-49 -63 20 -0 -78 -132 -117 -107
-56 -71 19 -1 -78 -133 -117 -107
-63 -78 20 0 -78 -132 -117 -107
-62 -75 22 0 -78 -131 -117 -107
-54 -63 24 -0 -78 -132 -117 -107
-48 -56 24 1 -78 -134 -116 -106
-54 -63 24 5 -78 -137 -117 -107
-66 -77 24 9 -78 -138 -119 -109
-68 -83 24 10 -78 -137 -122 -112
-58 -77 24 9 -78 -134 -123 -113
-49 -68 24 10 -78 -132 -122 -112
-51 -65 24 13 -78 -132 -122 -112
-59 -68 24 15 -78 -132 -122 -112
-61 -70 24 14 -78 -133 -122 -112
-59 -68 24 15 -78 -132 -122 -112
-58 -66 25 20 -78 -132 -122 -112
-59 -68 24 24 -78 -132 -122 -112
-56 -72 24 24 -79 -133 -122 -114
-49 -73 24 20 -78 -132 -122 -117
-46 -73 27 21 -74 -132 -123 -122
-49 -73 29 24 -68 -132 -122 -122
-55 -78 34 34 -63 -134 -122 -121
-59 -83 44 49 -59 -132 -122 -122
-64 -92 67 76 -52 -129 -130 -134
-73 -107 98 112 -34 -127 -142 -151
-83 -132 134 165 2 -129 -155 -171
-88 -156 166 229 49 -127 -161 -185
-91 -171 193 291 96 -118 -163 -195
-98 -171 210 317 137 -102 -161 -195
-105 -153 212 301 187 -70 -143 -175
-98 -112 190 249 254 -15 -93 -127
-68 -56 145 172 319 62 -12 -51
-20 -0 73 49 342 146 83 44
35 57 -24 -133 321 234 188 155
93 137 -142 -356 293 337 317 288
158 249 -268 -565 296 471 486 450
229 371 -386 -727 317 630 678 634
291 490 -491 -873 316 787 862 822
332 620 -595 -1055 278 927 1026 1006
362 775 -708 -1268 248 1079 1203 1199
390 937 -820 -1465 259 1265 1416 1406
391 1074 -913 -1632 272 1428 1605 1580
327 1162 -972 -1807 215 1475 1675 1655
214 1181 -1000 -1974 93 1386 1603 1614
112 1109 -1006 -2051 -34 1216 1441 1489
40 950 -993 -2007 -180 950 1190 1279
-49 752 -961 -1924 -439 508 786 937
-176 569 -914 -1876 -805 -66 259 487
-278 415 -854 -1816 -1104 -542 -210 63
-290 285 -788 -1668 -1192 -738 -455 -203
-239 181 -712 -1455 -1128 -722 -508 -317
-200 107 -626 -1259 -1050 -680 -513 -375
-195 44 -532 -1099 -982 -669 -532 -429
-189 -22 -441 -931 -860 -625 -525 -455
-166 -78 -361 -747 -688 -522 -464 -429
-140 -102 -292 -581 -533 -417 -386 -373
-122 -93 -229 -449 -420 -342 -322 -317
-104 -72 -172 -335 -322 -284 -274 -275
-83 -54 -127 -229 -229 -229 -229 -239
-68 -42 -94 -142 -164 -189 -193 -207
-59 -34 -68 -83 -127 -161 -166 -176
-52 -31 -43 -42 -98 -136 -146 -152
-44 -29 -24 -5 -68 -112 -127 -132
-38 -28 -10 34 -46 -101 -113 -122
-34 -29 0 63 -34 -98 -102 -117
-33 -36 12 81 -27 -97 -99 -119
-34 -44 20 88 -24 -93 -98 -117
-35 -49 23 97 -23 -90 -97 -111
-34 -49 24 107 -20 -88 -93 -102
-31 -49 29 118 -14 -88 -90 -98
-29 -49 34 127 -10 -88 -88 -98
-29 -49 37 140 -8 -86 -85 -98
-29 -49 39 151 -5 -83 -83 -98
-25 -49 44 160 3 -78 -82 -97
-20 -49 49 166 10 -73 -78 -93
-18 -49 50 175 13 -67 -70 -85
-20 -49 49 181 15 -63 -63 -78
-21 -49 51 183 21 -61 -62 -76
-20 -49 54 181 29 -59 -68 -78
-17 -49 55 183 34 -57 -73 -77
-15 -49 54 190 34 -54 -73 -73
-15 -51 52 197 35 -51 -69 -67
-15 -54 49 200 39 -49 -63 -63
-15 -57 45 200 45 -46 -57 -60
-15 -59 44 200 49 -44 -54 -59
-16 -60 46 202 51 -42 -53 -58
-15 -59 49 205 49 -39 -54 -59
-12 -56 50 206 47 -35 -55 -60
-10 -54 49 205 49 -34 -54 -59
-10 -54 49 202 56 -35 -52 -55
-10 -54 49 200 63 -34 -49 -49
-7 -54 48 199 66 -29 -46 -44
-5 -54 49 200 68 -24 -44 -44
-6 -53 52 203 71 -21 -42 -45
-5 -49 54 210 78 -20 -39 -44
-0 -41 54 217 86 -18 -37 -38
5 -34 54 220 93 -15 -34 -29
7 -31 56 219 99 -12 -31 -23
5 -34 54 220 102 -10 -29 -20
4 -36 48 226 102 -7 -27 -20
5 -34 44 234 102 -5 -24 -20
7 -30 48 240 103 -3 -20 -21
10 -29 54 244 107 0 -15 -20
17 -29 56 249 113 7 -8 -16
24 -24 54 254 122 15 0 -10
27 -16 52 257 131 20 7 -3
24 -15 49 259 137 20 10 0
21 -23 47 262 137 18 9 0
24 -29 49 268 137 20 10 -0
31 -24 56 273 141 26 14 3
34 -15 59 278 151 34 20 10
33 -13 53 281 160 40 23 15
34 -15 44 283 166 44 24 15
43 -13 41 286 170 49 26 13
54 -5 44 293 176 54 29 15
58 -1 48 304 184 58 33 22
54 -5 49 317 190 63 39 29
51 -9 47 325 191 69 49 32
54 -5 44 327 190 78 59 34
60 4 41 329 190 87 66 40
63 10 39 337 195 93 68 49
61 6 39 348 202 97 69 54
59 -5 39 356 210 102 73 54
61 -13 36 358 216 110 79 55
68 -10 34 361 220 122 88 63
74 1 34 371 227 134 98 76
78 15 34 386 239 142 107 88
81 26 34 398 254 147 115 94
88 34 34 405 264 151 122 98
96 40 35 411 268 157 129 106
102 44 34 420 273 166 137 117
105 47 29 429 284 175 146 128
112 49 24 439 298 185 156 137
125 54 21 448 305 195 166 146
137 63 20 459 307 205 176 156
142 72 18 469 309 214 185 165
142 78 15 478 317 224 195 171
143 80 12 481 326 234 205 177
146 83 10 478 332 244 215 185
150 91 7 474 336 253 224 196
156 102 5 478 342 264 234 210
164 111 3 489 352 275 245 223
171 117 -0 498 361 283 254 234
172 122 -5 500 367 286 260 240
171 127 -10 498 371 288 268 244
174 133 -13 499 376 295 281 248
181 142 -15 503 381 307 293 254
186 152 -19 505 382 317 300 263
185 161 -24 503 381 322 303 273
182 165 -27 498 380 323 307 280
185 166 -29 493 381 327 312 283
193 167 -31 488 382 333 317 285
195 171 -34 483 381 337 322 288
189 178 -37 480 380 339 326 292
185 185 -39 478 381 342 327 298
186 187 -41 472 381 346 327 302
185 185 -44 459 376 346 327 303
181 184 -45 442 366 339 329 301
185 190 -44 429 356 332 327 298
198 199 -43 422 350 329 319 297
200 200 -44 415 342 327 307 293
179 185 -46 402 327 317 297 283
151 161 -44 386 307 298 288 268
136 142 -37 372 290 279 274 251
132 137 -29 361 278 264 254 234
128 142 -25 349 269 252 233 219
122 146 -24 337 259 239 215 205
120 144 -23 327 248 224 200 191
117 137 -20 317 239 210 185 176
105 132 -17 305 230 196 168 160
88 127 -15 293 220 181 151 142
76 117 -14 282 204 163 135 124
68 98 -10 273 181 142 117 107
58 77 -4 263 159 121 97 93
49 63 -0 254 146 102 78 83
44 58 2 246 141 86 63 75
39 54 5 239 132 73 49 63
29 46 12 230 115 60 34 45
20 39 20 220 98 49 20 24
18 38 26 209 89 37 10 7
20 39 29 200 83 24 -0 -5
16 33 30 193 73 10 -12 -15
5 20 29 190 63 0 -24 -24
-5 8 28 187 57 -7 -32 -34
-10 -0 29 181 54 -15 -39 -44
-13 -7 34 171 46 -25 -51 -54
-20 -15 39 161 34 -34 -63 -63
-30 -21 40 155 26 -38 -69 -69
-34 -24 39 156 24 -39 -68 -73
-29 -24 38 158 23 -41 -65 -75
-20 -24 39 156 20 -44 -68 -78
-15 -25 40 151 15 -48 -76 -82
-20 -29 39 146 10 -54 -83 -88
-30 -34 38 145 5 -61 -87 -95
-39 -39 39 146 0 -68 -88 -102
-43 -43 40 147 -6 -71 -90 -106
-44 -44 39 146 -10 -73 -93 -107
-44 -44 36 145 -12 -75 -96 -107
-44 -44 34 146 -10 -78 -98 -107
-44 -44 33 146 -8 -79 -100 -109
-44 -44 34 146 -10 -78 -102 -112
-44 -44 34 145 -15 -77 -103 -113
-44 -44 34 146 -20 -78 -102 -112
-45 -44 33 148 -21 -79 -100 -111
-44 -44 34 151 -20 -78 -98 -112
-42 -43 36 153 -19 -75 -95 -115
-39 -44 39 156 -20 -73 -93 -117
-38 -46 42 159 -21 -72 -92 -117
-39 -49 44 161 -20 -73 -93 -117
-40 -50 44 162 -17 -73 -93 -117
-39 -49 44 161 -15 -73 -93 -117
-38 -49 44 160 -14 -73 -93 -117
-39 -49 44 161 -15 -73 -93 -117
-41 -49 44 163 -16 -73 -93 -117
-44 -49 44 166 -15 -73 -93 -117
-46 -50 44 169 -14 -73 -93 -117
-49 -54 44 171 -15 -73 -93 -117
-51 -56 45 173 -18 -73 -93 -117
-49 -54 44 176 -20 -73 -93 -117
-47 -50 42 179 -21 -73 -93 -117
-49 -49 39 181 -20 -73 -93 -117
-53 -51 38 181 -20 -71 -93 -117
-49 -49 39 181 -20 -68 -93 -117
-37 -40 40 183 -20 -67 -95 -115
-29 -34 39 185 -20 -68 -98 -112
-32 -39 38 186 -20 -69 -100 -111
-39 -49 39 185 -20 -68 -98 -112
-39 -53 42 184 -20 -65 -95 -113
-34 -49 44 185 -20 -63 -93 -112
-33 -45 45 185 -20 -62 -93 -109
-34 -44 44 185 -20 -63 -93 -107
-32 -45 44 184 -21 -64 -90 -106
-29 -44 44 185 -20 -63 -88 -107
-30 -43 44 187 -17 -61 -87 -107
-34 -44 44 190 -15 -59 -88 -107
-38 -45 44 192 -14 -58 -88 -107
-39 -44 44 195 -15 -59 -88 -107
-40 -41 44 198 -17 -60 -89 -105
-39 -39 44 200 -20 -59 -88 -102
-35 -40 44 200 -25 -57 -85 -99
-29 -44 44 200 -29 -54 -83 -98
-26 -47 44 200 -30 -53 -84 -99
-29 -49 44 200 -29 -54 -88 -102
-33 -49 45 198 -29 -57 -91 -105
-34 -49 44 195 -29 -59 -93 -107
-31 -47 41 194 -29 -59 -93 -107
-29 -44 39 195 -29 -59 -93 -107
-30 -41 38 195 -29 -59 -92 -107
-34 -39 39 195 -29 -59 -93 -107
-36 -38 39 195 -28 -59 -95 -107
-34 -39 39 195 -29 -59 -98 -107
-28 -40 39 193 -32 -59 -99 -107
-24 -39 39 190 -34 -59 -98 -107
-23 -38 39 188 -32 -58 -98 -107
-24 -39 39 190 -29 -59 -98 -107
-25 -44 39 193 -30 -61 -98 -106
-24 -49 39 190 -34 -63 -98 -107
-24 -50 39 177 -38 -63 -98 -110
-24 -44 39 156 -39 -63 -98 -112
-25 -35 40 134 -39 -63 -98 -112
-24 -29 39 117 -39 -63 -98 -112
-22 -29 37 101 -39 -62 -99 -112
-20 -34 34 78 -39 -63 -102 -112
-19 -40 33 52 -40 -66 -104 -111
-20 -44 34 34 -44 -68 -107 -112
-22 -44 34 27 -50 -68 -110 -115
-24 -44 34 20 -54 -68 -112 -117
-25 -45 34 7 -54 -70 -113 -116
-24 -49 34 -5 -54 -73 -112 -117
-26 -52 36 -8 -56 -73 -111 -122
-34 -54 39 -5 -59 -73 -112 -127
-43 -54 42 -7 -60 -75 -115 -128
-44 -54 44 -15 -59 -78 -117 -127
-35 -54 44 -20 -58 -81 -118 -128
-29 -54 44 -20 -59 -83 -117 -132
-32 -52 44 -19 -60 -86 -116 -136
-39 -49 44 -20 -59 -88 -117 -137
-42 -47 42 -22 -57 -88 -119 -136
-44 -49 39 -24 -59 -88 -122 -137
-49 -52 38 -26 -64 -90 -125 -141
-54 -54 39 -29 -68 -93 -127 -146
-51 -54 39 -34 -67 -92 -127 -148
-44 -54 39 -39 -63 -88 -127 -146
-41 -56 39 -45 -60 -84 -127 -143
-44 -59 39 -49 -59 -83 -127 -142
-50 -60 39 -50 -58 -86 -127 -142
-54 -59 39 -49 -54 -88 -127 -142
-56 -58 39 -48 -48 -88 -127 -143
-54 -59 39 -49 -44 -88 -127 -146
-46 -59 39 -54 -43 -88 -127 -146
-34 -54 39 -59 -44 -88 -127 -142
-24 -44 39 -61 -44 -88 -127 -137
-20 -39 39 -59 -44 -88 -127 -137
-23 -42 39 -56 -44 -90 -127 -143
-29 -49 39 -54 -44 -93 -127 -146
-35 -51 39 -54 -42 -94 -127 -142
-39 -49 39 -54 -39 -93 -127 -137
-39 -49 41 -54 -38 -90 -126 -137
-39 -54 44 -54 -39 -88 -127 -142
-40 -60 47 -54 -39 -88 -130 -146
-44 -63 49 -54 -39 -88 -132 -146
-46 -63 49 -54 -41 -88 -132 -145
-44 -63 49 -54 -44 -88 -132 -146
-41 -63 49 -53 -47 -88 -132 -147
-44 -63 49 -54 -49 -88 -132 -146
-52 -63 49 -56 -49 -88 -130 -145
-59 -63 49 -59 -49 -88 -127 -146
-59 -64 50 -60 -48 -90 -125 -148
-54 -68 49 -59 -49 -93 -127 -151
-51 -71 46 -58 -51 -96 -130 -152
-49 -68 44 -59 -54 -98 -132 -151
-47 -60 44 -60 -55 -99 -132 -149
-44 -54 44 -59 -54 -98 -132 -146
-45 -55 44 -56 -53 -97 -133 -145
-49 -63 44 -54 -54 -98 -137 -146
-53 -72 46 -54 -55 -101 -141 -149
-54 -78 49 -54 -54 -102 -142 -151
-53 -81 50 -52 -51 -100 -140 -151
-54 -83 49 -49 -49 -98 -137 -151
-57 -86 48 -48 -48 -97 -136 -153
-59 -88 49 -49 -49 -98 -137 -156
-58 -85 51 -50 -49 -98 -137 -157
-54 -78 54 -49 -49 -98 -137 -156
-51 -71 57 -48 -49 -98 -137 -155
-49 -68 59 -49 -49 -98 -137 -156
-47 -68 59 -50 -49 -98 -137 -156
-44 -68 59 -49 -49 -98 -137 -156
-41 -65 59 -48 -49 -98 -137 -157
-39 -63 59 -49 -49 -98 -137 -161
-37 -63 59 -50 -50 -98 -137 -166
-34 -63 59 -49 -49 -98 -137 -166
-33 -62 61 -46 -46 -98 -137 -161
-34 -63 63 -44 -44 -98 -137 -156
-35 -66 66 -44 -44 -96 -135 -155
-34 -68 68 -44 -44 -93 -132 -156
-31 -66 71 -40 -44 -92 -131 -157
-29 -63 73 -34 -44 -93 -132 -156
-31 -58 75 -30 -41 -91 -130 -153
-34 -49 78 -29 -34 -83 -122 -146
-35 -37 81 -29 -25 -73 -112 -138
-34 -29 83 -29 -20 -68 -107 -132
-34 -27 83 -30 -21 -69 -108 -130
-34 -24 83 -29 -20 -68 -107 -127
-31 -13 83 -25 -11 -61 -100 -119
-24 -0 83 -20 -0 -54 -93 -112
-17 4 84 -15 3 -52 -91 -110
-15 0 88 -10 0 -54 -93 -112
-18 -5 91 -8 -2 -55 -94 -113
-24 -5 88 -10 -0 -54 -93 -112
-27 -4 80 -12 2 -53 -92 -113
-24 -5 73 -10 0 -54 -93 -117
-19 -4 68 -7 -6 -54 -93 -119
-15 5 54 -15 -10 -54 -93 -117
-13 19 30 -38 -11 -54 -93 -111
-10 29 10 -63 -10 -54 -93 -107
-5 31 5 -75 -10 -52 -91 -106
0 29 10 -73 -10 -49 -88 -107
2 30 12 -66 -8 -46 -85 -106
-0 34 10 -59 -5 -44 -83 -102
-1 35 11 -52 -3 -44 -81 -99
0 34 15 -49 -5 -44 -78 -98
3 33 17 -53 -8 -44 -72 -98
5 34 15 -59 -10 -44 -68 -98
6 33 13 -61 -10 -44 -66 -97
10 29 15 -59 -10 -44 -68 -98
16 24 19 -56 -11 -46 -72 -102
20 20 24 -54 -15 -49 -78 -107
20 13 28 -52 -20 -54 -86 -110
20 -0 29 -49 -24 -59 -93 -112
21 -14 28 -48 -25 -61 -95 -112
20 -20 29 -49 -24 -59 -93 -112
13 -20 32 -50 -25 -57 -93 -112
5 -24 34 -49 -29 -63 -98 -117
1 -38 33 -48 -37 -76 -106 -125
-0 -54 34 -49 -44 -88 -112 -132
-3 -61 41 -51 -47 -93 -113 -133
-10 -59 49 -54 -44 -93 -112 -132
-20 -59 54 -55 -39 -94 -114 -134
-29 -68 54 -54 -39 -98 -122 -142
-36 -79 54 -53 -44 -103 -131 -151
-39 -83 54 -54 -49 -107 -137 -156
-39 -82 54 -54 -50 -110 -138 -157
-39 -83 54 -54 -49 -112 -137 -156
-39 -89 56 -53 -50 -114 -138 -157
-39 -93 59 -54 -54 -117 -142 -161
-39 -92 60 -56 -59 -120 -145 -164
-44 -93 59 -59 -63 -122 -146 -166
-54 -100 58 -60 -66 -123 -146 -166
-63 -107 59 -59 -68 -122 -146 -166
-63 -104 60 -58 -68 -121 -146 -166
-54 -93 59 -59 -68 -122 -146 -166
-48 -86 56 -60 -68 -124 -145 -165
-54 -93 54 -59 -68 -127 -146 -166
-66 -106 54 -58 -68 -128 -148 -168
-68 -112 54 -59 -68 -127 -151 -171
-58 -106 54 -61 -68 -124 -152 -171
-49 -98 54 -59 -68 -122 -151 -171
-51 -95 56 -55 -68 -122 -151 -171
-59 -98 59 -54 -68 -122 -151 -171
-62 -100 61 -56 -69 -122 -151 -171
-59 -98 63 -54 -68 -122 -151 -171
-55 -97 67 -44 -65 -122 -150 -170
-49 -98 73 -34 -59 -122 -146 -166
-42 -101 80 -30 -53 -123 -143 -163
-39 -102 83 -34 -49 -122 -142 -161
-46 -102 80 -42 -49 -122 -143 -162
-59 -102 68 -54 -49 -122 -142 -161
-68 -104 58 -59 -48 -124 -141 -159
-68 -107 59 -49 -44 -122 -142 -161
-68 -116 78 -19 -34 -121 -152 -175
-73 -132 107 15 -15 -122 -166 -195
-82 -158 141 57 20 -126 -181 -217
-88 -185 176 117 68 -127 -190 -234
-91 -212 215 198 117 -126 -201 -252
-98 -234 249 264 156 -122 -215 -268
-107 -238 267 289 201 -104 -213 -269
-107 -210 259 268 264 -59 -176 -239
-87 -157 226 219 336 12 -104 -177
-49 -102 171 137 376 93 -20 -93
0 -48 92 5 374 178 72 9
54 29 -15 -181 351 278 190 137
116 136 -139 -379 343 406 353 297
185 249 -259 -547 342 551 542 478
248 356 -366 -696 322 694 723 660
293 483 -468 -874 278 834 888 839
328 657 -576 -1086 259 1015 1082 1040
361 854 -683 -1284 293 1250 1323 1270
368 1027 -777 -1458 328 1463 1546 1478
312 1143 -849 -1650 283 1548 1650 1592
205 1187 -896 -1850 171 1492 1616 1595
107 1143 -908 -1968 63 1358 1499 1519
41 1011 -886 -1959 -60 1124 1290 1350
-39 830 -844 -1904 -317 683 903 1026
-157 651 -807 -1886 -722 65 355 559
-259 493 -781 -1865 -1089 -483 -161 98
-285 355 -752 -1757 -1241 -742 -453 -205
-254 234 -698 -1572 -1216 -761 -537 -346
-231 130 -618 -1390 -1158 -735 -562 -426
-234 34 -527 -1241 -1109 -742 -600 -503
-231 -52 -443 -1089 -1007 -721 -612 -552
-205 -112 -366 -913 -839 -630 -561 -537
-170 -133 -289 -738 -663 -513 -476 -475
-137 -127 -210 -586 -512 -410 -395 -405
-107 -115 -139 -457 -381 -325 -331 -349
-83 -102 -88 -346 -268 -254 -278 -307
-70 -86 -55 -258 -192 -206 -237 -273
-63 -68 -29 -195 -146 -171 -205 -239
-55 -56 -4 -147 -109 -140 -179 -210
-44 -49 15 -107 -73 -112 -156 -185
-37 -47 29 -70 -48 -100 -141 -171
-34 -49 39 -44 -34 -98 -132 -166
-34 -59 51 -30 -27 -98 -130 -168
-34 -68 59 -24 -24 -93 -127 -166
-31 -71 62 -13 -21 -88 -124 -158
-24 -63 63 -0 -15 -83 -117 -146
-15 -53 68 14 -5 -80 -111 -139
-10 -49 73 24 -0 -78 -107 -137
-10 -52 76 35 2 -76 -102 -137
-10 -59 78 44 5 -73 -98 -137
-5 -65 83 52 14 -68 -94 -136
-0 -68 88 59 24 -63 -88 -132
0 -70 89 68 30 -58 -80 -124
-5 -73 88 73 34 -54 -73 -117
-10 -76 90 74 41 -51 -71 -116
-10 -78 93 73 49 -49 -73 -117
-7 -78 94 76 54 -46 -75 -114
-5 -78 93 83 54 -44 -73 -107
-5 -78 93 90 53 -42 -68 -99
-5 -78 93 93 54 -39 -63 -93
-5 -78 93 93 56 -36 -58 -90
-5 -78 93 93 59 -34 -54 -88
-6 -79 95 95 60 -32 -51 -87
-5 -78 98 98 59 -29 -49 -88
-4 -75 98 99 57 -26 -48 -89
-5 -73 98 98 59 -24 -49 -88
-9 -73 98 98 66 -25 -50 -84
-10 -73 98 102 73 -24 -49 -78
-7 -73 97 108 75 -20 -47 -74
-5 -73 98 112 73 -15 -44 -73
-6 -74 99 112 72 -12 -42 -74
-5 -73 98 112 73 -10 -39 -73
1 -69 94 112 77 -8 -35 -67
10 -63 93 112 83 -5 -29 -59
15 -60 95 110 89 -1 -24 -52
15 -63 93 112 93 5 -20 -49
15 -67 85 119 93 11 -17 -48
15 -68 78 127 93 15 -15 -49
15 -67 78 131 94 17 -13 -50
15 -68 83 132 98 20 -10 -49
16 -68 85 132 104 26 -6 -45
15 -63 83 132 112 34 0 -39
10 -55 81 131 121 39 7 -33
5 -54 78 132 127 39 10 -29
7 -60 76 136 127 37 9 -29
20 -63 78 142 127 39 10 -29
36 -55 85 147 132 46 15 -26
44 -44 88 151 142 54 24 -20
40 -42 82 154 151 59 31 -15
34 -44 73 156 156 63 34 -15
36 -41 70 159 160 67 36 -15
44 -34 73 166 166 73 39 -10
48 -34 77 177 174 78 44 0
44 -44 78 190 181 83 54 10
40 -55 78 198 186 89 66 15
44 -54 78 200 190 98 78 20
52 -41 78 200 196 106 85 29
59 -24 78 205 205 112 88 39
61 -13 79 214 214 116 90 44
63 -10 78 220 220 122 93 44
69 -12 75 221 223 131 99 45
78 -15 73 224 224 142 107 54
85 -16 73 234 228 153 117 67
88 -15 73 249 239 161 127 78
91 -11 73 261 253 166 135 83
98 -5 73 268 264 171 142 88
105 1 74 274 268 179 150 96
107 5 73 283 273 190 161 107
107 5 68 291 284 203 173 118
112 5 63 298 298 215 185 127
125 8 60 304 307 225 196 136
137 15 59 312 312 234 205 146
142 24 57 323 318 243 214 154
142 29 54 332 327 254 224 161
143 31 51 335 336 264 234 168
146 34 49 332 342 273 244 176
150 43 46 328 345 282 253 185
156 54 44 332 351 293 264 195
165 63 42 342 359 304 275 206
171 68 39 351 366 312 283 215
170 73 34 353 371 315 289 221
166 78 29 351 376 317 298 224
167 85 26 352 383 325 310 229
176 93 24 356 390 337 322 239
184 103 20 359 392 347 329 254
185 112 15 356 390 351 332 268
182 116 11 349 388 352 336 278
185 117 10 342 390 356 342 283
195 118 8 337 392 362 347 286
200 122 5 332 390 366 351 288
197 129 0 327 385 366 354 290
195 137 -5 322 381 366 356 293
197 142 -9 314 377 368 356 295
195 142 -10 303 371 366 356 293
186 141 -8 291 363 356 356 288
181 142 -5 283 356 346 351 283
183 144 -3 279 351 341 340 279
181 142 -5 273 342 337 327 273
166 133 -7 260 326 326 316 263
151 122 -5 244 307 307 307 249
149 117 2 229 291 288 293 232
151 117 10 215 278 273 273 215
143 116 14 200 265 258 250 199
127 107 15 185 249 239 229 185
112 92 17 173 233 218 212 171
98 78 20 161 220 200 195 156
78 71 23 147 210 186 178 139
59 68 24 132 200 171 161 122
47 60 25 121 184 153 145 105
39 44 29 112 161 132 127 88
30 29 35 103 140 113 109 73
24 24 39 93 127 98 93 63
24 26 41 84 120 85 81 55
24 24 44 78 107 73 68 44
18 11 49 71 86 61 53 26
10 -5 54 63 68 49 39 5
8 -16 57 53 59 37 29 -13
10 -20 59 44 54 24 20 -24
6 -23 60 38 45 11 7 -32
-5 -29 59 34 34 0 -5 -39
-16 -36 58 30 27 -9 -13 -48
-20 -44 59 24 20 -20 -20 -59
-22 -54 63 14 8 -33 -31 -72
-29 -63 68 5 -5 -44 -44 -83
-44 -70 69 -0 -13 -49 -52 -90
-59 -73 68 0 -15 -49 -54 -93
-64 -74 67 2 -16 -51 -55 -93
-59 -73 68 -0 -20 -54 -59 -93
-50 -69 69 -5 -25 -58 -67 -95
-44 -63 68 -10 -29 -63 -73 -98
-43 -57 67 -11 -32 -69 -75 -103
-44 -54 68 -10 -34 -73 -73 -107
-44 -57 69 -13 -37 -75 -72 -110
-44 -63 68 -20 -39 -78 -73 -112
-44 -69 65 -27 -40 -83 -75 -114
-44 -73 63 -29 -39 -88 -78 -117
-44 -74 62 -26 -37 -89 -81 -120
-44 -73 63 -20 -39 -88 -83 -122
-44 -73 63 -16 -44 -87 -84 -123
-44 -73 63 -15 -49 -88 -83 -122
-44 -73 63 -15 -50 -89 -80 -121
-44 -73 63 -15 -49 -88 -78 -122
-43 -72 63 -15 -48 -87 -77 -125
-44 -73 63 -15 -49 -88 -78 -127
-46 -76 63 -15 -50 -91 -79 -128
-49 -78 63 -15 -49 -93 -78 -127
-50 -79 63 -15 -48 -94 -75 -127
-49 -78 63 -15 -49 -93 -73 -127
-48 -78 61 -15 -51 -93 -72 -127
-49 -78 59 -15 -54 -93 -73 -127
-50 -78 56 -14 -55 -93 -73 -127
-49 -78 54 -10 -54 -93 -73 -127
-48 -81 53 -5 -53 -93 -73 -127
-49 -88 54 -0 -54 -93 -73 -127
-50 -94 57 3 -57 -93 -73 -127
-49 -93 59 5 -59 -93 -73 -127
-47 -89 60 5 -60 -93 -73 -127
-49 -88 59 5 -59 -93 -73 -127
-53 -90 58 5 -57 -91 -71 -128
-49 -88 59 5 -54 -88 -68 -127
-37 -79 60 6 -51 -85 -67 -125
-29 -73 59 5 -49 -83 -68 -122
-34 -78 56 3 -48 -81 -69 -121
-44 -88 54 0 -49 -78 -68 -122
-47 -92 53 -1 -49 -75 -65 -123
-44 -88 54 -0 -49 -73 -63 -122
-44 -84 54 1 -48 -72 -63 -120
-44 -83 54 -0 -49 -73 -63 -117
-39 -80 54 -0 -50 -74 -61 -113
-29 -73 54 0 -49 -73 -59 -107
-22 -65 54 1 -46 -70 -58 -101
-20 -63 54 -0 -44 -68 -59 -98
-23 -67 54 -1 -44 -69 -59 -101
-29 -73 54 0 -44 -73 -59 -107
-36 -75 54 3 -42 -77 -59 -112
-39 -73 54 5 -39 -78 -59 -112
-35 -71 54 5 -38 -76 -57 -109
-29 -73 54 5 -39 -73 -54 -107
-26 -76 54 5 -39 -72 -53 -106
-29 -78 54 5 -39 -73 -54 -107
-33 -78 55 3 -41 -76 -54 -107
-34 -78 54 0 -44 -78 -54 -107
-33 -78 51 -1 -47 -78 -54 -107
-34 -78 49 -0 -49 -78 -54 -107
-36 -75 48 0 -50 -78 -53 -107
-39 -68 49 0 -49 -78 -54 -107
-38 -61 49 1 -48 -78 -56 -107
-34 -59 49 -0 -49 -78 -59 -107
-28 -64 49 -2 -52 -78 -61 -107
-24 -73 49 -5 -54 -78 -63 -107
-23 -79 49 -6 -54 -77 -66 -107
-24 -78 49 -5 -54 -78 -68 -107
-25 -73 49 -4 -57 -82 -68 -106
-24 -68 49 0 -63 -88 -68 -107
-23 -66 49 6 -67 -91 -68 -109
-24 -68 49 10 -68 -93 -68 -112
-26 -69 50 10 -68 -93 -68 -114
-29 -68 49 10 -68 -93 -68 -117
-30 -65 46 11 -68 -92 -70 -120
-29 -63 44 10 -68 -93 -73 -122
-28 -64 43 7 -69 -96 -76 -121
-29 -68 44 5 -73 -98 -78 -122
-31 -71 44 6 -79 -98 -81 -125
-34 -73 44 5 -83 -98 -83 -127
-35 -75 44 0 -82 -100 -84 -123
-34 -78 44 -5 -78 -102 -83 -117
-36 -81 44 -6 -77 -102 -82 -114
-44 -83 44 -5 -78 -102 -83 -117
-54 -83 44 -7 -79 -104 -86 -122
-54 -83 44 -10 -78 -107 -88 -127
-42 -83 44 -9 -77 -108 -89 -132
-29 -83 44 -5 -78 -107 -88 -137
-26 -81 44 -1 -77 -107 -88 -139
-29 -78 44 0 -73 -107 -88 -137
-32 -77 43 0 -68 -107 -88 -135
-34 -78 44 -0 -68 -107 -88 -137
-36 -78 46 -1 -73 -109 -88 -142
-34 -73 49 -5 -78 -112 -88 -146
-25 -65 50 -9 -79 -113 -88 -147
-15 -63 49 -10 -78 -112 -88 -146
-16 -70 49 -10 -80 -111 -88 -144
-29 -83 49 -10 -88 -112 -88 -142
-45 -94 49 -11 -96 -115 -88 -141
-54 -98 49 -10 -98 -117 -88 -142
-53 -95 49 -5 -96 -118 -88 -143
-44 -88 49 -0 -93 -117 -88 -142
-34 -79 49 2 -93 -116 -88 -139
-29 -73 49 0 -93 -117 -88 -137
-30 -73 49 -3 -93 -119 -90 -138
-34 -78 49 -5 -93 -122 -93 -142
-37 -84 49 -7 -95 -125 -96 -145
-39 -88 49 -10 -98 -127 -98 -146
-40 -88 49 -11 -99 -127 -98 -146
-39 -88 49 -10 -98 -127 -98 -146
-38 -88 49 -9 -98 -127 -98 -146
-39 -88 49 -10 -98 -127 -98 -146
-42 -88 49 -13 -98 -127 -98 -145
-44 -88 49 -15 -98 -127 -98 -146
-44 -90 49 -15 -98 -127 -98 -147
-44 -93 49 -15 -98 -127 -98 -146
-47 -95 49 -17 -98 -127 -98 -144
-49 -98 49 -20 -98 -127 -98 -146
-48 -101 49 -22 -99 -127 -98 -152
-44 -102 49 -20 -98 -127 -98 -156
-42 -102 51 -15 -95 -128 -99 -152
-44 -102 54 -10 -93 -127 -98 -146
-46 -103 57 -8 -92 -125 -96 -144
-44 -102 59 -5 -93 -122 -93 -146
-41 -96 60 -0 -93 -121 -92 -147
-39 -88 59 5 -93 -122 -93 -146
-39 -79 58 9 -90 -120 -91 -143
-39 -68 59 10 -83 -112 -83 -137
-36 -54 61 10 -73 -102 -73 -128
-34 -44 63 10 -68 -98 -68 -122
-34 -39 63 9 -67 -99 -69 -122
-34 -34 63 10 -63 -98 -68 -122
-31 -23 66 14 -51 -91 -62 -118
-24 -10 73 20 -39 -83 -54 -112
-17 -5 82 25 -35 -80 -51 -110
-15 -10 88 29 -39 -83 -54 -112
-18 -19 85 29 -41 -86 -57 -111
-24 -29 68 24 -39 -88 -59 -107
-27 -39 46 19 -36 -90 -61 -103
-24 -44 34 20 -39 -93 -63 -102
-15 -37 33 23 -45 -94 -63 -101
-5 -15 29 15 -49 -93 -63 -98
4 12 15 -5 -50 -93 -63 -93
10 29 0 -24 -49 -93 -63 -88
12 32 -4 -29 -49 -91 -61 -84
10 29 -0 -24 -49 -88 -59 -78
5 27 2 -21 -48 -86 -58 -71
-0 24 0 -20 -49 -88 -59 -68
-2 18 1 -18 -53 -91 -60 -72
0 10 5 -15 -59 -93 -59 -83
2 6 7 -16 -65 -93 -57 -93
-0 5 5 -20 -68 -93 -59 -98
-4 2 -0 -22 -68 -92 -64 -98
-5 -5 -5 -20 -68 -93 -68 -98
-2 -12 -8 -17 -69 -95 -69 -102
-0 -15 -5 -15 -73 -98 -68 -107
0 -19 2 -12 -79 -103 -70 -110
0 -29 10 -10 -83 -107 -73 -112
1 -42 16 -9 -84 -109 -74 -113
-0 -49 20 -10 -83 -107 -73 -112
-5 -48 23 -11 -84 -106 -73 -111
-10 -49 24 -10 -88 -112 -78 -112
-11 -57 23 -9 -95 -123 -86 -117
-10 -68 24 -10 -102 -132 -93 -122
-11 -71 31 -12 -104 -134 -94 -123
-15 -68 39 -15 -102 -132 -93 -122
-21 -68 43 -16 -99 -132 -95 -124
-29 -78 44 -15 -102 -137 -102 -132
-36 -91 44 -14 -110 -142 -111 -141
-39 -98 44 -15 -117 -146 -117 -146
-39 -99 44 -16 -118 -149 -118 -146
-39 -102 44 -15 -117 -151 -117 -146
-43 -108 46 -14 -118 -153 -118 -149
-49 -112 49 -15 -122 -156 -122 -156
-55 -111 50 -18 -126 -159 -126 -163
-59 -112 49 -20 -127 -161 -127 -166
-63 -118 48 -19 -127 -162 -127 -166
-63 -122 49 -15 -127 -161 -127 -166
-56 -116 52 -11 -127 -160 -127 -166
-44 -102 54 -10 -127 -161 -127 -166
-37 -95 54 -10 -127 -163 -126 -163
-44 -102 54 -10 -127 -166 -127 -161
-56 -116 54 -9 -127 -167 -130 -160
-59 -122 54 -10 -127 -166 -132 -161
-49 -116 54 -11 -127 -163 -133 -161
-39 -107 54 -10 -127 -161 -132 -161
-41 -104 54 -7 -127 -161 -132 -161
-49 -107 54 -5 -127 -161 -132 -161
-52 -109 54 -6 -127 -161 -132 -161
-49 -107 54 -5 -127 -161 -132 -161
-48 -105 55 1 -127 -161 -132 -162
-49 -107 54 5 -127 -161 -132 -161
-49 -111 53 2 -126 -162 -132 -161
-49 -112 54 -5 -122 -161 -132 -161
-53 -112 57 -7 -115 -161 -133 -163
-59 -112 59 -5 -107 -161 -132 -161
-62 -117 61 4 -100 -163 -132 -160
-59 -122 68 20 -93 -161 -132 -161
-57 -131 88 48 -83 -159 -140 -173
-63 -146 117 83 -63 -156 -151 -190
-73 -171 151 131 -25 -154 -161 -207
-78 -195 181 185 29 -146 -161 -215
-80 -210 206 236 85 -131 -156 -218
-88 -210 220 259 127 -112 -151 -215
-99 -192 219 247 168 -79 -132 -195
-98 -151 195 200 220 -24 -83 -146
-73 -96 146 125 271 53 -2 -70
-29 -39 73 10 283 137 93 24
24 27 -23 -152 250 230 199 135
83 122 -142 -346 205 342 332 273
150 250 -269 -527 190 487 507 442
220 381 -386 -669 200 649 698 625
273 502 -484 -796 196 802 870 799
298 630 -576 -952 161 937 1016 961
312 786 -677 -1140 134 1089 1179 1137
332 947 -781 -1319 142 1265 1377 1328
332 1076 -866 -1478 141 1392 1535 1477
268 1148 -913 -1646 59 1377 1553 1509
153 1151 -930 -1805 -88 1226 1426 1423
54 1070 -927 -1875 -229 1021 1236 1275
-1 912 -912 -1830 -378 755 994 1071
-59 722 -878 -1748 -639 327 620 752
-154 548 -827 -1698 -1010 -238 117 320
-239 395 -766 -1641 -1309 -708 -337 -93
-256 257 -708 -1510 -1382 -890 -568 -347
-224 137 -649 -1328 -1294 -849 -600 -444
-204 47 -579 -1162 -1193 -782 -584 -485
-205 -24 -493 -1021 -1109 -756 -590 -527
-193 -90 -404 -866 -973 -704 -575 -542
-156 -142 -322 -693 -781 -595 -508 -503
-117 -162 -252 -539 -606 -482 -422 -432
-93 -151 -190 -420 -478 -400 -351 -366
-77 -126 -135 -319 -372 -335 -298 -320
-63 -102 -93 -229 -273 -273 -249 -283
-54 -84 -63 -158 -200 -224 -208 -249
-49 -73 -39 -112 -156 -190 -176 -215
-43 -70 -15 -77 -124 -164 -155 -188
-34 -68 5 -44 -93 -142 -137 -166
-27 -67 19 -9 -69 -131 -123 -153
-24 -68 29 15 -54 -127 -112 -146
-25 -77 39 29 -46 -126 -108 -147
-29 -88 44 34 -44 -122 -107 -146
-33 -96 45 42 -43 -119 -106 -141
-34 -98 44 49 -39 -117 -102 -132
-31 -96 49 57 -32 -115 -99 -125
-29 -93 54 63 -29 -112 -98 -122
-30 -90 57 74 -27 -107 -95 -119
-29 -88 59 83 -24 -102 -93 -117
-22 -88 64 90 -16 -97 -91 -115
-10 -88 68 93 -10 -93 -88 -112
-1 -88 69 98 -7 -87 -80 -104
0 -88 68 102 -5 -83 -73 -98
-5 -88 70 103 2 -80 -71 -96
-10 -88 73 102 10 -78 -73 -98
-13 -88 74 105 15 -76 -75 -97
-15 -88 73 112 15 -73 -73 -93
-15 -88 73 119 16 -70 -68 -87
-15 -88 73 122 20 -68 -63 -83
-15 -88 73 122 25 -65 -58 -80
-15 -88 73 122 29 -63 -54 -78
-14 -89 75 124 30 -61 -51 -75
-10 -88 78 127 29 -59 -49 -73
-4 -86 79 128 27 -56 -47 -71
-0 -83 78 127 29 -54 -44 -68
-0 -79 78 127 36 -53 -40 -64
0 -73 78 132 44 -49 -34 -59
3 -66 78 138 48 -41 -28 -55
5 -63 78 142 49 -34 -24 -54
3 -67 79 142 51 -30 -22 -55
0 -73 78 142 54 -29 -20 -54
1 -75 75 143 58 -27 -18 -48
5 -73 73 142 63 -24 -15 -39
6 -71 72 139 69 -22 -12 -32
5 -73 68 137 73 -20 -10 -29
5 -75 59 140 74 -18 -8 -29
5 -73 54 146 73 -15 -5 -29
5 -69 57 149 74 -13 -2 -28
5 -68 63 151 78 -10 -0 -24
9 -68 65 153 84 -4 4 -18
15 -63 63 156 93 5 10 -10
18 -55 62 158 104 12 17 -3
15 -54 63 161 112 15 20 0
12 -62 64 165 115 16 19 -1
15 -68 68 171 117 20 20 -0
21 -63 75 177 123 27 26 6
24 -54 78 181 132 34 34 15
22 -52 72 184 140 40 40 22
24 -54 63 185 146 44 44 24
35 -51 60 187 150 49 48 24
49 -44 63 195 156 54 54 29
56 -41 67 207 164 58 60 39
54 -44 68 220 171 63 68 49
51 -47 68 225 176 69 78 54
54 -44 68 224 181 78 88 59
60 -36 68 223 187 87 95 68
63 -29 68 229 195 93 98 78
62 -28 69 240 205 97 99 83
63 -29 68 249 215 102 102 83
69 -27 65 252 223 110 107 84
78 -20 63 254 229 122 117 93
83 -12 63 261 237 137 129 108
83 -5 63 273 249 151 142 122
83 0 63 282 263 162 152 131
88 5 63 288 273 171 161 137
95 9 64 292 279 179 170 145
98 10 63 298 288 190 181 156
97 9 59 304 302 203 193 166
102 10 54 312 317 215 205 176
114 15 51 321 327 225 215 185
127 24 49 332 332 234 224 195
132 33 47 343 338 243 233 203
132 39 44 351 346 254 244 210
133 42 41 354 353 264 255 216
137 49 39 351 356 273 264 224
141 61 36 348 357 282 273 235
146 73 34 351 361 293 283 249
154 82 32 360 369 304 294 262
161 88 29 366 376 312 303 273
163 93 24 365 379 315 309 279
161 98 20 361 381 317 317 283
162 99 18 361 384 325 330 288
166 98 15 366 386 337 342 298
169 98 10 369 385 347 349 311
166 102 5 366 381 351 351 322
163 109 2 359 379 352 353 327
166 117 -0 351 381 356 356 327
174 125 -2 343 383 363 359 326
176 132 -5 337 381 366 361 327
170 140 -8 332 376 364 362 329
166 146 -10 327 371 361 361 332
168 148 -12 318 364 361 358 334
166 146 -15 303 356 356 356 332
157 142 -16 285 347 343 352 324
151 142 -15 273 342 327 342 312
153 144 -14 266 339 316 325 302
151 142 -15 259 332 307 307 293
137 132 -17 245 317 294 296 282
122 117 -15 229 298 273 288 268
120 108 -8 216 282 252 275 251
122 107 -0 205 268 234 254 234
114 107 4 193 251 218 231 219
98 98 5 181 229 200 210 205
87 82 6 171 206 179 193 192
78 68 10 161 190 161 176 176
65 62 13 148 180 146 159 157
49 59 15 132 171 132 142 137
37 48 17 118 155 114 125 117
29 29 20 107 132 93 107 98
21 13 25 99 110 74 88 83
15 10 29 93 98 59 73 73
13 15 32 88 93 47 61 65
10 15 34 83 83 34 49 54
0 2 37 74 65 18 34 36
-10 -15 39 63 49 0 20 15
-13 -26 39 52 40 -18 10 -3
-10 -29 39 44 34 -34 -0 -15
-10 -31 39 40 25 -45 -11 -21
-15 -34 39 39 15 -49 -20 -24
-20 -37 38 38 9 -50 -24 -27
-20 -39 39 34 5 -54 -29 -34
-19 -42 44 25 -4 -64 -40 -44
-20 -44 49 15 -15 -73 -54 -54
-23 -44 51 10 -22 -77 -61 -61
-24 -44 49 10 -24 -78 -59 -63
-23 -47 46 12 -25 -79 -56 -63
-24 -54 44 10 -29 -83 -59 -63
-30 -62 41 5 -35 -88 -67 -64
-39 -68 39 -0 -39 -93 -73 -68
-45 -72 38 -1 -42 -99 -75 -74
-44 -73 39 -0 -44 -102 -73 -78
-39 -73 39 1 -47 -102 -72 -79
-34 -73 39 -0 -49 -102 -73 -78
-33 -73 40 -1 -48 -104 -75 -77
-34 -73 44 -0 -44 -107 -78 -78
-35 -73 50 1 -39 -108 -81 -81
-34 -73 54 -0 -39 -107 -83 -83
-34 -73 55 -3 -44 -106 -84 -84
-34 -73 54 -5 -49 -107 -83 -83
-34 -73 54 -6 -50 -108 -81 -82
-34 -73 54 -5 -49 -107 -78 -83
-33 -72 52 -5 -48 -104 -77 -86
-34 -73 49 -5 -49 -102 -78 -88
-36 -75 46 -6 -50 -101 -81 -89
-39 -78 44 -5 -49 -102 -83 -88
-40 -79 44 -3 -48 -102 -83 -88
-39 -78 44 0 -49 -102 -83 -88
-38 -78 44 3 -52 -102 -83 -88
-39 -78 44 5 -54 -102 -83 -88
-40 -78 44 7 -53 -102 -83 -88
-39 -78 44 10 -49 -102 -83 -88
-38 -79 43 13 -45 -102 -83 -88
-39 -83 44 15 -44 -102 -83 -88
-41 -86 46 15 -46 -102 -83 -88
-39 -83 49 15 -49 -102 -83 -88
-36 -78 50 15 -50 -102 -83 -88
-39 -78 49 15 -49 -102 -83 -88
-48 -85 48 13 -47 -100 -81 -88
-54 -93 49 10 -44 -98 -78 -88
-52 -95 50 9 -41 -97 -77 -86
-49 -93 49 10 -39 -98 -78 -83
-50 -90 46 10 -38 -97 -77 -82
-49 -83 44 10 -39 -93 -73 -83
-42 -70 43 10 -40 -87 -67 -84
-34 -59 44 10 -39 -83 -63 -83
-32 -58 44 10 -38 -82 -63 -80
-34 -68 44 10 -39 -83 -63 -78
-33 -79 44 10 -40 -84 -61 -78
-29 -83 44 10 -39 -83 -59 -78
-28 -83 44 11 -36 -80 -58 -76
-29 -83 44 10 -34 -78 -59 -73
-29 -84 44 9 -34 -77 -59 -70
-29 -83 44 10 -34 -78 -59 -68
-29 -76 44 13 -32 -79 -60 -66
-29 -68 44 15 -29 -78 -59 -63
-25 -63 44 15 -28 -76 -56 -60
-20 -63 44 15 -29 -73 -54 -59
-18 -66 44 16 -29 -72 -55 -59
-20 -68 44 15 -29 -73 -59 -59
-23 -68 45 12 -29 -76 -62 -59
-24 -68 44 10 -29 -78 -63 -59
-23 -68 41 11 -29 -78 -63 -59
-24 -68 39 15 -29 -78 -63 -59
-28 -68 38 18 -29 -78 -62 -59
-34 -68 39 20 -29 -78 -63 -59
-38 -69 39 21 -28 -78 -65 -59
-39 -73 39 20 -29 -78 -68 -59
-37 -77 39 17 -32 -78 -69 -59
-34 -78 39 15 -34 -78 -68 -59
-33 -74 39 15 -34 -77 -68 -59
-34 -68 39 15 -34 -78 -68 -59
-34 -65 39 15 -38 -80 -68 -58
-34 -68 39 15 -44 -83 -68 -59
-34 -73 39 16 -48 -85 -68 -61
-34 -78 39 15 -49 -88 -68 -63
-34 -79 40 12 -49 -91 -68 -63
-34 -78 39 10 -49 -93 -68 -63
-32 -77 37 11 -49 -93 -70 -63
-29 -78 34 10 -49 -93 -73 -63
-27 -81 33 6 -50 -96 -76 -62
-29 -83 34 5 -54 -98 -78 -63
-32 -83 36 9 -60 -98 -80 -66
-34 -83 39 15 -63 -98 -83 -68
-34 -85 42 16 -63 -100 -84 -68
-34 -88 44 15 -63 -102 -83 -68
-35 -88 44 15 -65 -99 -80 -71
-34 -83 44 15 -68 -93 -78 -73
-29 -77 44 11 -69 -88 -78 -71
-24 -73 44 5 -68 -88 -78 -68
-22 -73 43 3 -67 -90 -77 -69
-24 -78 44 5 -68 -93 -73 -73
-27 -84 46 8 -68 -96 -69 -77
-29 -88 49 10 -68 -98 -68 -78
-29 -89 50 10 -68 -98 -68 -78
-29 -88 49 10 -68 -98 -68 -78
-29 -88 49 10 -68 -98 -67 -79
-29 -88 49 10 -68 -98 -68 -78
-28 -88 49 10 -68 -98 -71 -77
-29 -88 49 10 -68 -98 -73 -78
-31 -88 49 10 -68 -98 -73 -79
-34 -88 49 10 -68 -98 -73 -78
-38 -88 49 10 -69 -98 -75 -76
-44 -88 49 10 -73 -98 -78 -78
-51 -86 49 9 -77 -98 -79 -85
-54 -83 49 10 -78 -98 -78 -88
-51 -81 51 13 -75 -99 -78 -82
-44 -83 54 15 -73 -98 -78 -73
-38 -85 57 15 -73 -96 -76 -68
-34 -83 59 15 -73 -93 -73 -68
-31 -75 61 18 -70 -92 -72 -69
-29 -63 63 24 -63 -93 -73 -68
-29 -51 66 28 -54 -91 -71 -65
-29 -39 68 29 -44 -83 -63 -59
-28 -30 67 27 -39 -75 -55 -54
-29 -29 63 24 -44 -73 -54 -54
-32 -34 57 21 -53 -77 -58 -59
-34 -34 54 20 -54 -78 -59 -63
-31 -23 54 23 -43 -71 -52 -60
-24 -10 54 29 -29 -63 -44 -54
-17 -6 55 35 -25 -61 -42 -52
-15 -10 59 39 -29 -63 -44 -54
-17 -13 62 39 -32 -64 -43 -53
-20 -10 59 34 -29 -63 -39 -49
-20 -6 51 29 -26 -62 -35 -45
-15 -5 44 29 -29 -63 -34 -44
-9 -3 40 31 -35 -62 -34 -43
-5 5 29 24 -39 -59 -34 -39
-3 19 8 4 -39 -56 -34 -33
0 29 -10 -15 -39 -54 -34 -29
3 31 -15 -20 -41 -52 -32 -28
5 29 -10 -15 -44 -49 -29 -29
3 27 -8 -11 -47 -47 -27 -30
-0 24 -10 -10 -49 -49 -29 -29
-1 19 -9 -10 -51 -54 -32 -28
0 15 -5 -10 -54 -59 -34 -29
1 14 -3 -14 -57 -62 -35 -30
-0 15 -5 -20 -59 -63 -39 -29
-2 12 -7 -22 -59 -63 -45 -28
0 5 -5 -20 -59 -63 -49 -29
6 -1 -1 -17 -60 -65 -50 -33
10 -5 5 -15 -63 -68 -49 -39
10 -10 11 -11 -68 -71 -49 -43
10 -20 15 -5 -73 -73 -49 -44
11 -32 17 -1 -74 -71 -47 -44
10 -39 20 0 -73 -68 -44 -44
3 -40 23 -0 -73 -67 -44 -46
-5 -44 24 -0 -78 -73 -49 -54
-9 -56 23 1 -86 -84 -57 -65
-10 -68 24 0 -93 -93 -63 -73
-13 -72 31 -4 -95 -97 -66 -75
-20 -68 39 -10 -93 -98 -68 -73
-30 -68 43 -14 -90 -101 -74 -75
-39 -78 44 -15 -93 -107 -83 -83
-46 -91 44 -15 -101 -113 -92 -92
-49 -98 44 -15 -107 -117 -98 -98
-49 -99 44 -15 -108 -120 -99 -99
-49 -102 44 -15 -107 -122 -98 -98
-49 -108 46 -14 -110 -124 -99 -99
-49 -112 49 -15 -117 -127 -102 -102
-48 -112 50 -18 -124 -130 -106 -106
-49 -112 49 -20 -127 -132 -107 -107
-53 -114 48 -19 -127 -131 -105 -105
-54 -112 49 -15 -127 -127 -102 -102
-47 -100 52 -11 -127 -123 -99 -99
-34 -83 54 -10 -127 -122 -98 -98
-27 -75 51 -10 -127 -124 -97 -97
-34 -83 44 -10 -127 -127 -98 -98
-46 -96 37 -9 -127 -128 -100 -100
-49 -102 34 -10 -127 -127 -102 -102
-39 -98 37 -11 -127 -124 -102 -102
-29 -93 44 -10 -127 -122 -102 -102
-31 -94 51 -6 -127 -122 -102 -102
-39 -98 54 -5 -127 -122 -102 -102
-42 -100 54 -6 -127 -122 -102 -102
-39 -98 54 -5 -127 -122 -102 -102
-38 -96 55 1 -127 -122 -103 -103
-39 -98 54 5 -127 -122 -102 -102
-40 -102 53 2 -127 -123 -102 -102
-39 -102 54 -5 -127 -122 -102 -102
-42 -101 57 -7 -124 -122 -103 -103
-49 -102 59 -5 -117 -122 -102 -102
-56 -110 61 4 -107 -124 -102 -104
-59 -122 68 20 -93 -122 -102 -112
-64 -138 88 48 -76 -120 -110 -130
-73 -156 117 83 -54 -117 -122 -151
-83 -176 151 126 -19 -117 -135 -168
-88 -190 181 171 29 -112 -142 -176
-91 -196 207 213 79 -101 -144 -179
-98 -190 220 229 117 -83 -142 -176
-108 -169 214 212 152 -48 -120 -155
-107 -127 181 161 195 10 -63 -107
-83 -69 123 81 237 89 25 -31
-39 -10 44 -39 244 176 122 63
15 56 -54 -204 214 271 227 177
73 151 -171 -400 176 386 356 317
140 278 -298 -584 168 533 527 488
210 410 -415 -727 181 698 717 673
267 531 -515 -849 177 853 892 849
298 659 -610 -997 142 992 1045 1011
318 815 -714 -1174 115 1145 1214 1184
342 977 -820 -1348 122 1323 1416 1377
348 1106 -909 -1508 119 1456 1581 1534
293 1182 -966 -1680 34 1450 1611 1582
187 1189 -994 -1842 -117 1309 1497 1512
93 1109 -997 -1914 -259 1109 1314 1372
39 948 -976 -1869 -408 838 1070 1168
-20 752 -932 -1787 -669 400 688 844
-115 572 -872 -1738 -1041 -174 179 409
-200 415 -805 -1680 -1338 -649 -278 -5
-217 275 -737 -1541 -1405 -831 -511 -261
-185 156 -659 -1343 -1304 -786 -547 -361
-163 67 -569 -1160 -1190 -715 -534 -405
-166 -5 -473 -1011 -1099 -688 -542 -449
-161 -74 -385 -860 -965 -640 -530 -471
-137 -132 -312 -698 -781 -537 -468 -444
-111 -159 -249 -555 -613 -430 -388 -386
-93 -151 -190 -439 -488 -351 -322 -327
-78 -126 -135 -336 -382 -289 -270 -280
-63 -98 -93 -239 -283 -229 -220 -239
-54 -76 -63 -162 -210 -183 -178 -201
-49 -63 -39 -112 -166 -151 -146 -166
-43 -60 -15 -77 -132 -125 -125 -139
-34 -59 5 -44 -98 -102 -107 -117
-27 -58 19 -10 -71 -92 -94 -104
-24 -59 29 15 -54 -88 -83 -98
-23 -67 39 29 -46 -87 -79 -99
-24 -78 44 34 -44 -83 -78 -98
-25 -86 45 42 -43 -80 -77 -92
-24 -88 44 49 -39 -78 -73 -83
-21 -88 49 57 -32 -76 -70 -78
-20 -88 54 63 -29 -73 -68 -78
-21 -88 57 73 -27 -68 -65 -78
-20 -88 59 83 -24 -63 -63 -78
-15 -88 64 92 -14 -58 -60 -75
-10 -88 68 98 -5 -54 -54 -68
-8 -88 69 106 1 -48 -43 -57
-10 -88 68 112 5 -44 -34 -49
-12 -88 70 113 12 -41 -31 -47
-10 -88 73 112 20 -39 -34 -49
-7 -88 74 115 24 -37 -35 -48
-5 -88 73 122 24 -34 -34 -44
-5 -88 73 129 27 -32 -31 -38
-5 -88 73 132 34 -29 -29 -34
-5 -88 73 132 43 -26 -27 -31
-5 -88 73 132 49 -24 -24 -29
-6 -89 75 134 51 -22 -22 -28
-5 -88 78 137 49 -20 -20 -29
-2 -85 78 138 47 -17 -18 -30
-0 -83 78 137 49 -15 -15 -29
-1 -83 78 138 56 -16 -12 -25
0 -83 78 142 63 -15 -10 -20
3 -83 77 148 67 -11 -8 -16
5 -83 78 151 68 -5 -5 -15
3 -84 79 151 70 -1 -2 -16
0 -83 78 151 73 0 -0 -15
1 -79 74 152 77 2 2 -9
5 -73 73 151 83 5 5 -0
6 -71 74 147 89 10 10 7
5 -73 73 146 93 15 15 10
4 -76 67 150 93 20 20 10
5 -73 63 156 93 24 24 10
7 -67 67 159 94 26 27 9
10 -63 73 161 98 29 29 10
17 -60 75 163 103 36 33 14
24 -54 73 166 112 44 39 20
27 -45 71 168 123 49 46 26
24 -44 68 171 132 49 49 29
21 -53 66 176 135 47 48 28
24 -59 68 181 137 49 49 29
30 -54 75 184 144 57 55 34
34 -44 78 185 156 68 63 44
33 -41 72 185 168 77 69 52
34 -44 63 185 176 83 73 54
41 -43 60 187 180 88 75 54
49 -39 63 195 185 93 78 59
50 -38 67 207 192 97 82 69
44 -44 68 220 200 102 88 78
39 -50 68 225 205 108 97 83
39 -49 68 224 210 117 107 88
42 -44 68 223 216 125 114 97
44 -39 68 229 224 132 117 107
43 -38 69 240 232 137 119 112
44 -39 68 249 239 142 122 112
50 -36 65 251 243 150 128 113
59 -29 63 254 249 161 137 122
67 -19 63 263 260 174 149 135
73 -10 63 278 278 185 161 146
79 -2 63 290 298 193 171 151
88 5 63 298 312 200 181 156
96 11 64 304 317 209 192 166
98 15 63 312 322 220 205 181
97 17 59 322 332 232 220 194
102 20 54 332 346 244 234 205
115 25 51 341 357 255 245 214
127 34 49 351 366 264 254 224
132 43 47 362 375 273 263 232
132 49 44 371 386 283 273 239
133 53 41 372 395 295 284 246
137 59 39 366 400 307 293 254
141 70 36 359 404 319 302 265
146 83 34 361 410 332 312 278
154 92 32 369 418 343 323 292
161 98 29 376 425 351 332 303
163 102 24 375 428 354 338 309
161 107 20 371 429 356 346 312
163 113 18 371 432 362 358 317
171 122 15 376 434 371 371 327
177 134 10 379 433 379 378 340
176 142 5 376 429 381 381 351
171 141 3 369 427 382 383 357
171 132 5 361 429 386 386 361
176 123 6 353 431 393 389 364
176 122 5 346 429 395 390 366
170 133 1 339 423 391 389 366
166 151 -5 332 415 386 386 366
168 164 -11 320 406 383 381 365
166 166 -15 303 395 376 376 361
155 159 -16 285 382 362 371 353
146 151 -15 273 371 346 361 342
146 147 -14 267 363 335 344 332
142 142 -15 259 351 327 327 322
127 133 -17 245 331 313 314 310
112 122 -15 229 307 293 303 293
110 117 -8 216 286 272 287 273
112 117 -0 205 268 254 264 254
104 113 2 191 248 236 238 237
88 98 0 176 224 215 215 220
76 76 -2 162 199 191 195 203
68 59 -0 151 181 171 176 185
55 52 3 139 170 156 158 168
39 49 5 127 161 142 142 151
27 39 6 116 145 123 125 134
20 20 10 107 122 102 107 117
17 5 18 99 100 82 90 104
20 5 29 93 88 68 78 98
28 13 38 88 82 56 70 93
29 15 44 83 73 44 59 83
15 2 46 76 55 31 43 65
-5 -15 44 68 39 20 29 44
-18 -26 41 60 30 8 19 26
-20 -29 39 54 24 -5 10 15
-21 -33 39 48 15 -19 -3 7
-24 -39 39 44 5 -29 -15 0
-28 -45 38 40 -1 -36 -23 -7
-29 -49 39 34 -5 -44 -29 -15
-31 -54 44 25 -13 -54 -41 -25
-39 -59 49 15 -24 -63 -54 -34
-49 -62 50 10 -32 -67 -61 -41
-54 -63 49 10 -34 -68 -59 -44
-49 -63 48 12 -35 -70 -54 -43
-39 -63 49 10 -39 -73 -54 -39
-35 -65 50 4 -45 -78 -58 -37
-39 -68 49 -0 -49 -83 -63 -39
-46 -71 48 0 -52 -87 -64 -44
-49 -73 49 5 -54 -88 -63 -49
-47 -73 50 9 -57 -85 -62 -50
-44 -73 49 10 -59 -83 -63 -49
-43 -73 46 10 -58 -85 -65 -48
-44 -73 44 10 -54 -88 -68 -49
-44 -73 43 11 -49 -89 -71 -52
-44 -73 44 10 -49 -88 -73 -54
-44 -73 44 7 -54 -87 -74 -55
-44 -73 44 5 -59 -88 -73 -54
-44 -73 43 5 -60 -89 -71 -53
-44 -73 44 5 -59 -88 -68 -54
-43 -72 46 3 -58 -87 -67 -57
-44 -73 49 0 -59 -88 -68 -59
-46 -75 52 -3 -60 -91 -71 -60
-49 -78 54 -5 -59 -93 -73 -59
-52 -79 54 -5 -58 -94 -73 -59
-54 -78 54 -5 -59 -93 -73 -59
-56 -77 54 -5 -61 -92 -73 -59
-59 -78 54 -5 -63 -93 -73 -59
-63 -82 54 -3 -66 -95 -73 -59
-68 -88 54 0 -68 -98 -73 -59
-74 -96 53 3 -70 -101 -73 -59
-78 -102 54 5 -73 -102 -73 -59
-73 -100 56 5 -76 -102 -73 -59
-59 -88 59 5 -78 -102 -73 -59
-44 -74 60 5 -78 -102 -73 -59
-39 -68 59 5 -78 -102 -73 -59
-42 -70 58 4 -78 -100 -73 -59
-39 -68 59 5 -78 -98 -73 -59
-27 -59 60 7 -78 -97 -75 -57
-20 -54 59 10 -78 -98 -78 -54
-28 -62 55 11 -78 -99 -80 -53
-44 -78 49 10 -78 -98 -78 -54
-53 -88 45 10 -78 -95 -75 -55
-54 -88 44 10 -78 -93 -73 -54
-54 -84 44 10 -77 -92 -73 -51
-54 -83 44 10 -78 -93 -73 -49
-52 -84 44 10 -79 -94 -71 -49
-49 -83 44 10 -78 -93 -68 -49
-48 -80 44 11 -75 -90 -67 -49
-49 -78 44 10 -73 -88 -68 -49
-49 -76 44 9 -73 -87 -68 -49
-49 -73 44 10 -73 -88 -68 -49
-49 -68 44 13 -71 -89 -68 -47
-49 -63 44 15 -68 -88 -68 -44
-45 -61 44 15 -67 -86 -66 -41
-39 -63 44 15 -68 -83 -63 -39
-35 -66 44 17 -68 -82 -62 -39
-34 -68 44 20 -68 -83 -63 -39
-34 -68 45 21 -68 -86 -63 -39
-34 -68 44 20 -68 -88 -63 -39
-33 -68 41 20 -68 -88 -63 -39
-34 -68 39 20 -68 -88 -63 -39
-38 -68 38 20 -68 -88 -62 -39
-44 -68 39 20 -68 -88 -63 -39
-47 -67 39 21 -67 -88 -66 -39
-44 -68 39 20 -68 -88 -68 -39
-38 -69 39 18 -71 -88 -68 -39
-34 -68 39 15 -73 -88 -68 -39
-33 -64 39 13 -73 -87 -69 -39
-34 -59 39 10 -73 -88 -73 -39
-34 -57 39 6 -77 -91 -76 -38
-34 -59 39 5 -83 -93 -78 -39
-34 -64 39 7 -87 -93 -78 -42
-34 -68 39 10 -88 -93 -78 -44
-34 -69 39 10 -88 -93 -78 -44
-34 -68 39 10 -88 -93 -78 -44
-32 -68 38 11 -86 -92 -78 -44
-29 -73 39 10 -83 -93 -78 -44
-27 -80 42 7 -81 -96 -77 -43
-29 -83 44 5 -83 -98 -78 -44
-33 -78 44 6 -89 -98 -80 -47
-34 -68 44 5 -93 -98 -83 -49
-33 -60 44 -0 -94 -100 -84 -48
-34 -59 44 -5 -93 -102 -83 -49
-42 -66 42 -5 -94 -102 -82 -53
-54 -78 39 -5 -98 -102 -83 -59
-62 -89 36 -10 -100 -104 -86 -61
-63 -93 34 -15 -98 -107 -88 -59
-57 -88 33 -14 -95 -108 -89 -56
-49 -78 34 -10 -93 -107 -88 -54
-42 -70 37 -8 -93 -106 -88 -51
-39 -68 39 -10 -93 -107 -88 -49
-39 -68 40 -11 -92 -107 -88 -50
-39 -68 39 -10 -93 -107 -88 -54
-39 -67 39 -9 -95 -107 -88 -57
-39 -68 39 -10 -98 -107 -88 -59
-40 -69 39 -11 -99 -107 -88 -59
-39 -68 39 -10 -98 -107 -88 -59
-37 -66 39 -10 -97 -106 -88 -59
-39 -68 39 -10 -98 -107 -88 -59
-44 -76 39 -10 -98 -110 -88 -59
-49 -83 39 -10 -98 -112 -88 -59
-49 -84 39 -9 -97 -112 -88 -60
-49 -83 39 -10 -98 -112 -88 -63
-51 -84 39 -11 -99 -114 -88 -67
-54 -83 39 -10 -98 -117 -88 -68
-55 -78 41 -7 -95 -118 -88 -64
-54 -73 44 -5 -93 -117 -88 -59
-54 -73 47 -5 -93 -114 -86 -58
-54 -73 49 -5 -93 -112 -83 -59
-52 -69 51 -1 -93 -112 -82 -60
-49 -63 54 5 -93 -112 -83 -59
-49 -57 56 9 -90 -109 -81 -56
-49 -49 59 10 -83 -102 -73 -49
-47 -38 62 10 -73 -93 -63 -40
-44 -29 63 10 -68 -88 -59 -34
-40 -24 63 9 -67 -86 -60 -30
